Interval=	0.005 s
ExcelDateTime=	4.2844669800012722e+004	19/04/2017 16:04:30.721099
TimeFormat=	StartOfBlock
DateFormat=	
ChannelTitle=	Membrane Potential	Output Pulse
Range=	1000.0 mV	10.000 V
UnitName=	mV	*
TopValue=	99.5	*
BottomValue=	-99.4	*
621.25	-14.8	-0.000
621.255	-14.7	-0.001
621.26	-14.5	-0.000
621.265	-14.7	0.000
621.27	-14.9	-0.000
621.275	-14.7	-0.000
621.28	-14.5	0.000
621.285	-14.7	-0.001
621.29	-14.9	-0.000
621.295	-14.7	-0.000
621.3	-14.5	-0.000
621.305	-14.7	-0.000
621.31	-14.9	-0.000
621.315	-14.7	-0.000
621.32	-14.5	-0.001
621.325	-14.7	-0.000
621.33	-14.9	-0.000
621.335	-14.7	0.000
621.34	-14.5	-0.001
621.345	-14.7	0.000
621.35	-14.9	-0.000
621.355	-14.7	-0.000
621.36	-14.5	-0.000
621.365	-14.6	-0.001
621.37	-14.8	-0.000
621.375	-14.6	-0.000
621.38	-14.4	0.000
621.385	-14.6	-0.001
621.39	-14.8	-0.001
621.395	-14.6	-0.000
621.4	-14.4	-0.000
621.405	-14.7	-0.001
621.41	-14.9	-0.000
621.415	-14.7	-0.000
621.42	-14.5	-0.001
621.425	-14.7	-0.000
621.43	-14.8	-0.001
621.435	-14.7	-0.000
621.44	-14.5	-0.000
621.445	-14.7	-0.001
621.45	-14.9	0.000
621.455	-14.7	-0.001
621.46	-14.5	-0.000
621.465	-14.6	-0.001
621.47	-14.8	-0.001
621.475	-14.6	-0.000
621.48	-14.4	-0.001
621.485	-14.6	-0.000
621.49	-14.8	-0.000
621.495	-14.6	0.000
621.5	-14.3	-0.000
621.505	-14.5	0.000
621.51	-14.7	0.000
621.515	-14.5	-0.001
621.52	-14.2	-0.001
621.525	-14.4	-0.000
621.53	-14.7	-0.001
621.535	-14.5	-0.000
621.54	-14.3	0.000
621.545	-14.5	-0.001
621.55	-14.7	-0.000
621.555	-14.5	0.000
621.56	-14.2	-0.000
621.565	-14.4	-0.001
621.57	-14.7	-0.000
621.575	-14.5	-0.000
621.58	-14.2	-0.000
621.585	-14.4	0.000
621.59	-14.7	-0.001
621.595	-14.5	-0.000
621.6	-14.3	-0.000
621.605	-14.5	-0.000
621.61	-14.7	-0.000
621.615	-14.5	-0.000
621.62	-14.3	-0.000
621.625	-14.6	-0.000
621.63	-14.8	-0.001
621.635	-14.7	-0.001
621.64	-14.5	-0.001
621.645	-14.7	0.000
621.65	-15.0	-0.001
621.655	-14.7	-0.000
621.66	-14.5	-0.001
621.665	-14.7	-0.001
621.67	-14.9	-0.000
621.675	-14.8	0.000
621.68	-14.6	-0.000
621.685	-14.8	-0.000
621.69	-15.0	-0.000
621.695	-14.8	-0.000
621.7	-14.7	-0.001
621.705	-14.9	-0.001
621.71	-15.1	-0.001
621.715	-14.9	0.000
621.72	-14.7	0.000
621.725	-14.9	0.000
621.73	-15.1	-0.001
621.735	-14.9	-0.001
621.74	-14.7	-0.001
621.745	-14.9	0.000
621.75	-15.1	0.000
621.755	-14.9	-0.001
621.76	-14.7	-0.001
621.765	-14.9	-0.000
621.77	-15.1	-0.000
621.775	-14.9	0.000
621.78	-14.7	0.000
621.785	-14.9	0.000
621.79	-15.1	-0.000
621.795	-14.9	-0.001
621.8	-14.8	0.000
621.805	-15.0	-0.001
621.81	-15.1	-0.000
621.815	-14.9	-0.000
621.82	-14.7	-0.001
621.825	-15.0	-0.000
621.83	-15.2	-0.000
621.835	-15.0	0.000
621.84	-14.8	-0.000
621.845	-15.0	-0.001
621.85	-15.1	-0.001
621.855	-14.9	-0.000
621.86	-14.7	-0.000
621.865	-15.0	-0.001
621.87	-15.2	-0.001
621.875	-14.9	-0.001
621.88	-14.7	-0.000
621.885	-14.9	0.000
621.89	-15.1	0.000
621.895	-14.9	-0.000
621.9	-14.7	-0.000
621.905	-14.9	0.000
621.91	-15.1	-0.001
621.915	-14.9	-0.000
621.92	-14.7	-0.000
621.925	-14.9	-0.001
621.93	-15.0	-0.000
621.935	-14.8	-0.001
621.94	-14.6	0.000
621.945	-14.8	0.000
621.95	-14.9	-0.000
621.955	-14.8	-0.001
621.96	-14.6	0.000
621.965	-14.8	-0.000
621.97	-15.0	-0.001
621.975	-14.7	-0.001
621.98	-14.6	-0.001
621.985	-14.8	-0.001
621.99	-15.0	-0.001
621.995	-14.7	-0.000
622	-14.5	-0.001
622.005	-14.7	0.000
622.01	-14.9	-0.000
622.015	-14.7	-0.001
622.02	-14.5	-0.001
622.025	-14.7	-0.001
622.03	-14.9	-0.000
622.035	-14.7	-0.000
622.04	-14.5	-0.000
622.045	-14.7	-0.000
622.05	-14.8	-0.000
622.055	-14.6	-0.001
622.06	-14.5	-0.000
622.065	-14.6	0.000
622.07	-14.8	-0.000
622.075	-14.6	0.000
622.08	-14.4	0.000
622.085	-14.6	-0.000
622.09	-14.7	-0.000
622.095	-14.5	-0.001
622.1	-14.4	-0.000
622.105	-14.6	-0.000
622.11	-14.7	0.000
622.115	-14.5	-0.000
622.12	-14.4	-0.000
622.125	-14.6	0.000
622.13	-14.8	-0.000
622.135	-14.5	0.000
622.14	-14.3	-0.000
622.145	-14.5	-0.000
622.15	-14.7	-0.000
622.155	-14.5	-0.001
622.16	-14.3	-0.000
622.165	-14.5	-0.000
622.17	-14.7	-0.001
622.175	-14.5	0.000
622.18	-14.3	-0.000
622.185	-14.5	-0.001
622.19	-14.7	-0.001
622.195	-14.5	-0.000
622.2	-14.3	-0.001
622.205	-14.5	-0.001
622.21	-14.7	-0.000
622.215	-14.5	0.000
622.22	-14.3	-0.000
622.225	-14.5	-0.000
622.23	-14.6	-0.000
622.235	-14.4	-0.001
622.24	-14.3	-0.000
622.245	-14.5	-0.000
622.25	-14.6	-0.001
622.255	-14.5	-0.001
622.26	-14.3	-0.001
622.265	-14.5	0.000
622.27	-14.6	-0.000
622.275	-14.4	-0.000
622.28	-14.3	-0.000
622.285	-14.5	-0.001
622.29	-14.7	0.000
622.295	-14.5	-0.000
622.3	-14.3	-0.001
622.305	-14.5	0.000
622.31	-14.6	0.000
622.315	-14.5	-0.000
622.32	-14.3	0.000
622.325	-14.5	0.001
622.33	-14.6	-0.001
622.335	-14.5	0.000
622.34	-14.4	-0.000
622.345	-14.6	-0.000
622.35	-14.7	-0.000
622.355	-14.5	0.000
622.36	-14.4	-0.000
622.365	-14.6	-0.000
622.37	-14.8	-0.001
622.375	-14.6	-0.001
622.38	-14.5	-0.001
622.385	-14.7	-0.000
622.39	-14.8	-0.001
622.395	-14.6	-0.000
622.4	-14.5	-0.000
622.405	-14.7	0.000
622.41	-14.8	0.000
622.415	-14.7	0.000
622.42	-14.6	0.000
622.425	-14.8	-0.001
622.43	-15.0	-0.001
622.435	-14.8	0.000
622.44	-14.7	-0.001
622.445	-14.8	-0.001
622.45	-15.0	-0.000
622.455	-14.8	-0.000
622.46	-14.7	-0.001
622.465	-14.9	-0.001
622.47	-15.0	-0.000
622.475	-14.8	-0.001
622.48	-14.7	-0.000
622.485	-14.9	-0.000
622.49	-15.0	0.000
622.495	-14.8	-0.000
622.5	-14.7	-0.000
622.505	-14.9	-0.001
622.51	-15.0	-0.000
622.515	-14.8	-0.000
622.52	-14.7	-0.001
622.525	-14.9	-0.000
622.53	-15.0	0.000
622.535	-14.8	-0.000
622.54	-14.7	-0.000
622.545	-14.8	-0.000
622.55	-15.0	0.000
622.555	-14.8	-0.000
622.56	-14.7	-0.000
622.565	-14.8	-0.000
622.57	-14.9	0.000
622.575	-14.7	-0.000
622.58	-14.5	0.000
622.585	-14.7	0.000
622.59	-14.8	-0.001
622.595	-14.6	-0.000
622.6	-14.5	-0.001
622.605	-14.7	-0.000
622.61	-14.8	-0.001
622.615	-14.6	0.000
622.62	-14.5	-0.000
622.625	-14.7	-0.001
622.63	-14.7	-0.001
622.635	-14.6	-0.000
622.64	-14.5	0.000
622.645	-14.7	-0.000
622.65	-14.8	-0.000
622.655	-14.6	-0.000
622.66	-14.5	-0.000
622.665	-14.6	-0.000
622.67	-14.7	-0.000
622.675	-14.6	-0.000
622.68	-14.5	-0.000
622.685	-14.7	-0.001
622.69	-14.7	-0.001
622.695	-14.5	-0.000
622.7	-14.4	0.000
622.705	-14.6	-0.001
622.71	-14.7	-0.001
622.715	-14.5	0.000
622.72	-14.4	0.000
622.725	-14.6	-0.000
622.73	-14.7	-0.000
622.735	-14.5	0.000
622.74	-14.4	-0.000
622.745	-14.5	-0.000
622.75	-14.6	-0.000
622.755	-14.4	-0.000
622.76	-14.3	0.000
622.765	-14.5	0.000
622.77	-14.6	-0.000
622.775	-14.4	0.000
622.78	-14.3	-0.001
622.785	-14.5	-0.001
622.79	-14.5	-0.000
622.795	-14.3	0.000
622.8	-14.2	-0.000
622.805	-14.4	-0.001
622.81	-14.5	-0.000
622.815	-14.4	-0.000
622.82	-14.3	-0.001
622.825	-14.5	-0.000
622.83	-14.6	-0.000
622.835	-14.4	0.000
622.84	-14.3	-0.001
622.845	-14.5	-0.000
622.85	-14.6	-0.001
622.855	-14.4	-0.000
622.86	-14.3	0.000
622.865	-14.5	0.000
622.87	-14.6	0.000
622.875	-14.4	-0.000
622.88	-14.3	-0.001
622.885	-14.5	-0.000
622.89	-14.5	-0.000
622.895	-14.4	0.000
622.9	-14.3	0.000
622.905	-14.5	0.000
622.91	-14.6	-0.001
622.915	-14.4	-0.000
622.92	-14.3	-0.000
622.925	-14.5	0.000
622.93	-14.6	-0.000
622.935	-14.4	-0.001
622.94	-14.3	-0.000
622.945	-14.5	0.000
622.95	-14.6	-0.001
622.955	-14.4	-0.000
622.96	-14.3	0.000
622.965	-14.5	-0.001
622.97	-14.6	-0.000
622.975	-14.4	-0.000
622.98	-14.4	-0.001
622.985	-14.5	-0.001
622.99	-14.6	-0.001
622.995	-14.4	-0.001
623	-14.4	0.000
623.005	-14.6	-0.001
623.01	-14.7	0.000
623.015	-14.5	-0.001
623.02	-14.4	-0.000
623.025	-14.6	0.000
623.03	-14.7	-0.000
623.035	-14.5	-0.000
623.04	-14.5	-0.000
623.045	-14.7	0.000
623.05	-14.7	-0.000
623.055	-14.5	-0.000
623.06	-14.5	-0.000
623.065	-14.6	-0.001
623.07	-14.7	0.000
623.075	-14.5	-0.000
623.08	-14.5	-0.001
623.085	-14.7	0.000
623.09	-14.7	-0.000
623.095	-14.5	-0.000
623.1	-14.5	-0.001
623.105	-14.7	0.000
623.11	-14.8	-0.000
623.115	-14.6	-0.001
623.12	-14.5	0.000
623.125	-14.7	-0.001
623.13	-14.7	-0.001
623.135	-14.6	0.000
623.14	-14.6	-0.000
623.145	-14.7	-0.001
623.15	-14.8	-0.000
623.155	-14.6	0.000
623.16	-14.5	-0.001
623.165	-14.7	-0.001
623.17	-14.8	-0.000
623.175	-14.6	-0.000
623.18	-14.6	-0.001
623.185	-14.8	-0.001
623.19	-14.8	-0.000
623.195	-14.7	-0.001
623.2	-14.7	0.000
623.205	-14.8	-0.001
623.21	-14.9	-0.001
623.215	-14.7	-0.000
623.22	-14.6	0.000
623.225	-14.8	-0.001
623.23	-14.9	-0.000
623.235	-14.7	-0.000
623.24	-14.7	-0.001
623.245	-14.9	0.000
623.25	-14.9	-0.000
623.255	-14.7	-0.000
623.26	-14.7	-0.001
623.265	-14.9	-0.001
623.27	-14.9	-0.001
623.275	-14.7	-0.000
623.28	-14.7	-0.001
623.285	-14.9	0.000
623.29	-14.9	-0.000
623.295	-14.7	-0.001
623.3	-14.7	-0.000
623.305	-14.9	-0.000
623.31	-14.9	-0.000
623.315	-14.7	0.000
623.32	-14.7	-0.000
623.325	-14.9	0.000
623.33	-14.9	0.001
623.335	-14.7	-0.000
623.34	-14.7	-0.001
623.345	-14.9	-0.000
623.35	-14.9	0.000
623.355	-14.7	-0.001
623.36	-14.7	0.000
623.365	-14.9	-0.000
623.37	-14.9	-0.000
623.375	-14.7	-0.000
623.38	-14.7	-0.001
623.385	-14.9	-0.001
623.39	-14.9	0.000
623.395	-14.7	-0.000
623.4	-14.7	-0.001
623.405	-14.9	0.000
623.41	-14.9	-0.000
623.415	-14.7	-0.001
623.42	-14.7	-0.001
623.425	-14.8	0.000
623.43	-14.8	-0.000
623.435	-14.6	-0.001
623.44	-14.7	-0.001
623.445	-14.8	-0.000
623.45	-14.8	-0.000
623.455	-14.6	-0.001
623.46	-14.6	-0.000
623.465	-14.8	-0.001
623.47	-14.8	-0.001
623.475	-14.6	0.000
623.48	-14.6	0.000
623.485	-14.8	-0.000
623.49	-14.8	-0.000
623.495	-14.6	-0.001
623.5	-14.6	5.119
623.505	-14.8	-0.001
623.51	-14.8	-0.000
623.515	-14.6	-0.000
623.52	-14.6	0.000
623.525	-14.8	-0.000
623.53	-14.8	0.000
623.535	-14.6	-0.001
623.54	-14.6	-0.000
623.545	-14.8	-0.001
623.55	-14.9	0.000
623.555	-14.7	-0.000
623.56	-14.7	-0.000
623.565	-14.9	0.000
623.57	-14.8	0.000
623.575	-14.6	-0.000
623.58	-14.6	0.000
623.585	-14.8	-0.001
623.59	-14.8	-0.001
623.595	-14.6	0.000
623.6	-14.6	-0.000
623.605	-14.8	-0.000
623.61	-14.8	-0.000
623.615	-14.6	0.000
623.62	-14.6	-0.001
623.625	-14.8	-0.000
623.63	-14.8	0.000
623.635	-14.6	0.000
623.64	-14.6	-0.000
623.645	-14.7	-0.001
623.65	-14.7	-0.001
623.655	-14.6	-0.000
623.66	-14.6	-0.000
623.665	-14.8	0.000
623.67	-14.7	-0.001
623.675	-14.5	-0.000
623.68	-14.5	0.000
623.685	-14.7	-0.000
623.69	-14.6	-0.001
623.695	-14.5	-0.000
623.7	-14.6	-0.000
623.705	-14.7	-0.001
623.71	-14.6	-0.001
623.715	-14.4	-0.000
623.72	-14.5	0.000
623.725	-14.6	-0.000
623.73	-14.6	-0.000
623.735	-14.4	0.000
623.74	-14.5	-0.001
623.745	-14.6	-0.000
623.75	-14.6	0.000
623.755	-14.4	0.000
623.76	-14.4	0.000
623.765	-14.6	-0.000
623.77	-14.5	-0.000
623.775	-14.3	-0.000
623.78	-14.3	-0.001
623.785	-14.5	-0.000
623.79	-14.5	-0.000
623.795	-14.4	-0.001
623.8	-14.4	-0.001
623.805	-14.5	0.000
623.81	-14.5	0.000
623.815	-14.3	0.000
623.82	-14.4	0.000
623.825	-14.5	-0.000
623.83	-14.4	0.000
623.835	-14.2	-0.000
623.84	-14.3	0.000
623.845	-14.4	0.000
623.85	-14.4	0.000
623.855	-14.3	-0.001
623.86	-14.4	-0.000
623.865	-14.5	-0.000
623.87	-14.5	-0.001
623.875	-14.4	-0.000
623.88	-14.4	-0.000
623.885	-14.5	0.000
623.89	-14.5	-0.001
623.895	-14.3	-0.001
623.9	-14.4	-0.000
623.905	-14.6	-0.001
623.91	-14.6	-0.000
623.915	-14.4	0.000
623.92	-14.5	-0.000
623.925	-14.6	-0.000
623.93	-14.6	-0.000
623.935	-14.4	-0.001
623.94	-14.5	-0.001
623.945	-14.7	-0.000
623.95	-14.7	-0.000
623.955	-14.5	0.000
623.96	-14.6	-0.001
623.965	-14.7	-0.000
623.97	-14.7	0.000
623.975	-14.5	-0.000
623.98	-14.6	-0.001
623.985	-14.7	0.000
623.99	-14.7	0.000
623.995	-14.5	-0.000
624	-14.6	0.000
624.005	-14.7	0.000
624.01	-14.7	-0.000
624.015	-14.5	-0.001
624.02	-14.6	-0.000
624.025	-14.8	-0.000
624.03	-14.7	-0.001
624.035	-14.6	0.000
624.04	-14.7	-0.001
624.045	-14.8	-0.001
624.05	-14.8	-0.000
624.055	-14.6	-0.000
624.06	-14.6	-0.000
624.065	-14.8	0.000
624.07	-14.8	-0.000
624.075	-14.7	-0.000
624.08	-14.7	-0.000
624.085	-14.9	-0.001
624.09	-14.8	-0.001
624.095	-14.6	-0.001
624.1	-14.7	-0.001
624.105	-14.8	0.000
624.11	-14.8	0.000
624.115	-14.7	-0.000
624.12	-14.7	-0.000
624.125	-14.9	-0.000
624.13	-14.8	-0.000
624.135	-14.7	-0.001
624.14	-14.8	0.000
624.145	-14.9	-0.000
624.15	-14.9	0.000
624.155	-14.7	-0.000
624.16	-14.8	0.000
624.165	-14.9	-0.000
624.17	-14.8	-0.000
624.175	-14.7	-0.001
624.18	-14.7	-0.000
624.185	-14.9	-0.001
624.19	-14.8	-0.000
624.195	-14.7	-0.001
624.2	-14.7	5.120
624.205	-14.9	-0.001
624.21	-14.8	-0.001
624.215	-14.6	0.000
624.22	-14.7	-0.001
624.225	-14.8	-0.001
624.23	-14.7	-0.001
624.235	-14.6	-0.001
624.24	-14.7	-0.001
624.245	-14.9	0.000
624.25	-14.8	-0.000
624.255	-14.6	-0.001
624.26	-14.6	-0.001
624.265	-14.8	-0.000
624.27	-14.7	0.000
624.275	-14.6	-0.000
624.28	-14.6	-0.000
624.285	-14.8	0.000
624.29	-14.7	-0.000
624.295	-14.6	-0.000
624.3	-14.6	-0.001
624.305	-14.8	-0.001
624.31	-14.8	-0.000
624.315	-14.6	-0.000
624.32	-14.7	-0.000
624.325	-14.8	0.000
624.33	-14.8	-0.000
624.335	-14.7	0.000
624.34	-14.8	-0.001
624.345	-14.9	-0.000
624.35	-14.8	-0.001
624.355	-14.7	-0.001
624.36	-14.8	-0.000
624.365	-15.0	-0.000
624.37	-14.9	-0.000
624.375	-14.7	0.000
624.38	-14.8	-0.000
624.385	-15.0	-0.001
624.39	-14.9	-0.001
624.395	-14.8	-0.000
624.4	-14.9	-0.000
624.405	-15.0	-0.001
624.41	-14.9	-0.000
624.415	-14.8	-0.000
624.42	-14.9	-0.000
624.425	-15.0	-0.001
624.43	-14.9	-0.001
624.435	-14.8	-0.001
624.44	-14.9	-0.001
624.445	-15.1	-0.000
624.45	-15.0	-0.000
624.455	-14.9	-0.000
624.46	-15.0	-0.000
624.465	-15.1	-0.000
624.47	-15.1	-0.000
624.475	-14.9	0.000
624.48	-15.0	-0.001
624.485	-15.1	0.000
624.49	-15.0	-0.001
624.495	-14.9	-0.000
624.5	-15.0	-0.001
624.505	-15.2	-0.000
624.51	-15.1	-0.001
624.515	-15.0	0.000
624.52	-15.0	-0.001
624.525	-15.2	-0.000
624.53	-15.1	-0.000
624.535	-14.9	-0.000
624.54	-15.0	0.000
624.545	-15.2	0.000
624.55	-15.1	-0.001
624.555	-14.9	-0.000
624.56	-15.0	0.000
624.565	-15.1	-0.000
624.57	-15.0	0.000
624.575	-14.9	0.000
624.58	-15.0	0.000
624.585	-15.1	0.000
624.59	-15.0	-0.000
624.595	-14.8	0.000
624.6	-14.9	0.000
624.605	-15.1	-0.000
624.61	-15.0	0.000
624.615	-14.8	-0.001
624.62	-14.9	0.000
624.625	-15.0	0.000
624.63	-14.9	-0.001
624.635	-14.8	0.000
624.64	-14.9	-0.001
624.645	-15.0	-0.000
624.65	-14.9	0.000
624.655	-14.8	0.000
624.66	-14.9	-0.001
624.665	-15.0	-0.000
624.67	-14.9	0.000
624.675	-14.8	0.000
624.68	-14.9	-0.001
624.685	-15.0	-0.000
624.69	-14.8	-0.000
624.695	-14.7	-0.000
624.7	-14.8	-0.001
624.705	-14.9	-0.000
624.71	-14.8	-0.000
624.715	-14.7	-0.000
624.72	-14.8	-0.001
624.725	-14.9	-0.000
624.73	-14.8	-0.000
624.735	-14.7	-0.000
624.74	-14.8	0.000
624.745	-14.8	-0.000
624.75	-14.7	-0.000
624.755	-14.6	-0.001
624.76	-14.7	-0.000
624.765	-14.8	-0.001
624.77	-14.7	0.000
624.775	-14.6	0.000
624.78	-14.7	-0.001
624.785	-14.8	-0.000
624.79	-14.7	-0.000
624.795	-14.6	-0.001
624.8	-14.7	-0.000
624.805	-14.8	-0.001
624.81	-14.7	0.000
624.815	-14.6	-0.001
624.82	-14.7	-0.000
624.825	-14.8	-0.000
624.83	-14.7	-0.001
624.835	-14.6	-0.001
624.84	-14.7	-0.001
624.845	-14.8	0.000
624.85	-14.7	-0.000
624.855	-14.6	-0.000
624.86	-14.7	-0.000
624.865	-14.8	0.000
624.87	-14.6	-0.001
624.875	-14.6	-0.001
624.88	-14.6	-0.000
624.885	-14.7	-0.000
624.89	-14.7	-0.000
624.895	-14.6	-0.000
624.9	-14.7	-0.001
624.905	-14.8	0.000
624.91	-14.6	-0.000
624.915	-14.5	-0.000
624.92	-14.6	-0.000
624.925	-14.8	-0.000
624.93	-14.7	0.000
624.935	-14.5	-0.000
624.94	-14.6	0.000
624.945	-14.7	-0.000
624.95	-14.6	-0.000
624.955	-14.5	-0.000
624.96	-14.6	-0.001
624.965	-14.7	-0.001
624.97	-14.6	-0.000
624.975	-14.5	0.000
624.98	-14.6	-0.001
624.985	-14.7	0.000
624.99	-14.6	-0.000
624.995	-14.5	-0.000
625	-14.6	0.000
625.005	-14.7	-0.000
625.01	-14.5	-0.000
625.015	-14.4	-0.001
625.02	-14.5	-0.000
625.025	-14.6	0.000
625.03	-14.5	-0.000
625.035	-14.4	-0.000
625.04	-14.5	-0.001
625.045	-14.6	-0.001
625.05	-14.5	-0.001
625.055	-14.4	-0.001
625.06	-14.5	-0.001
625.065	-14.6	-0.000
625.07	-14.5	-0.001
625.075	-14.4	-0.000
625.08	-14.5	-0.000
625.085	-14.6	0.000
625.09	-14.5	-0.000
625.095	-14.4	-0.000
625.1	-14.5	5.119
625.105	-14.6	-0.001
625.11	-14.5	-0.000
625.115	-14.4	0.000
625.12	-14.5	-0.000
625.125	-14.6	-0.000
625.13	-14.5	-0.000
625.135	-14.4	-0.000
625.14	-14.5	-0.001
625.145	-14.6	-0.001
625.15	-14.6	-0.000
625.155	-14.5	-0.000
625.16	-14.6	0.000
625.165	-14.7	-0.000
625.17	-14.6	0.000
625.175	-14.6	-0.001
625.18	-14.6	-0.000
625.185	-14.7	-0.001
625.19	-14.6	-0.000
625.195	-14.6	-0.000
625.2	-14.7	-0.001
625.205	-14.8	0.000
625.21	-14.8	0.000
625.215	-14.8	-0.000
625.22	-14.9	-0.001
625.225	-14.9	-0.000
625.23	-14.8	-0.001
625.235	-14.7	-0.000
625.24	-14.8	-0.001
625.245	-14.9	-0.001
625.25	-14.9	0.000
625.255	-14.8	0.000
625.26	-14.9	-0.000
625.265	-14.9	-0.001
625.27	-14.9	-0.000
625.275	-14.8	-0.000
625.28	-14.9	0.000
625.285	-15.0	0.000
625.29	-15.0	0.000
625.295	-14.9	-0.000
625.3	-15.0	-0.001
625.305	-15.1	-0.001
625.31	-15.0	-0.001
625.315	-15.0	-0.000
625.32	-15.1	-0.000
625.325	-15.1	-0.000
625.33	-15.0	-0.000
625.335	-15.0	0.000
625.34	-15.1	-0.000
625.345	-15.1	-0.000
625.35	-15.1	-0.001
625.355	-15.1	0.000
625.36	-15.2	-0.000
625.365	-15.3	-0.001
625.37	-15.1	0.000
625.375	-15.1	-0.001
625.38	-15.2	-0.000
625.385	-15.2	-0.000
625.39	-15.1	-0.000
625.395	-15.0	0.000
625.4	-15.1	-0.000
625.405	-15.2	0.000
625.41	-15.1	-0.001
625.415	-15.1	-0.000
625.42	-15.2	-0.001
625.425	-15.2	-0.001
625.43	-15.0	-0.000
625.435	-14.9	0.000
625.44	-15.0	0.000
625.445	-15.0	-0.001
625.45	-15.0	-0.001
625.455	-15.0	-0.000
625.46	-15.1	-0.000
625.465	-15.1	0.000
625.47	-15.0	0.000
625.475	-15.0	-0.000
625.48	-15.1	-0.000
625.485	-15.1	-0.001
625.49	-14.9	0.000
625.495	-14.9	-0.001
625.5	-15.0	-0.001
625.505	-15.0	-0.000
625.51	-14.9	-0.000
625.515	-14.9	-0.001
625.52	-15.0	-0.001
625.525	-15.0	-0.000
625.53	-14.9	-0.001
625.535	-14.9	-0.001
625.54	-14.9	-0.001
625.545	-14.9	-0.000
625.55	-14.9	0.000
625.555	-14.9	0.000
625.56	-15.0	0.000
625.565	-15.0	-0.001
625.57	-14.9	-0.001
625.575	-14.9	0.000
625.58	-15.0	-0.000
625.585	-15.0	-0.001
625.59	-14.8	-0.001
625.595	-14.8	-0.000
625.6	-14.9	-0.001
625.605	-14.9	-0.001
625.61	-14.8	-0.000
625.615	-14.8	-0.000
625.62	-14.9	-0.001
625.625	-14.9	-0.001
625.63	-14.8	0.000
625.635	-14.8	-0.001
625.64	-14.9	0.000
625.645	-14.8	-0.000
625.65	-14.7	-0.001
625.655	-14.7	-0.000
625.66	-14.8	0.000
625.665	-14.8	0.000
625.67	-14.7	-0.001
625.675	-14.7	-0.001
625.68	-14.8	-0.000
625.685	-14.8	0.000
625.69	-14.7	-0.001
625.695	-14.7	-0.000
625.7	-14.8	-0.000
625.705	-14.7	-0.000
625.71	-14.6	-0.001
625.715	-14.6	-0.000
625.72	-14.8	0.000
625.725	-14.8	0.000
625.73	-14.6	-0.001
625.735	-14.6	-0.001
625.74	-14.7	-0.001
625.745	-14.7	0.000
625.75	-14.6	0.000
625.755	-14.5	-0.001
625.76	-14.6	-0.000
625.765	-14.6	-0.001
625.77	-14.6	-0.001
625.775	-14.6	-0.000
625.78	-14.7	0.000
625.785	-14.7	-0.000
625.79	-14.6	-0.000
625.795	-14.6	0.000
625.8	-14.7	-0.000
625.805	-14.7	-0.000
625.81	-14.6	0.000
625.815	-14.6	0.000
625.82	-14.7	-0.000
625.825	-14.7	-0.001
625.83	-14.6	-0.000
625.835	-14.6	-0.001
625.84	-14.7	-0.001
625.845	-14.7	0.000
625.85	-14.6	-0.000
625.855	-14.7	0.000
625.86	-14.7	0.000
625.865	-14.7	0.000
625.87	-14.6	-0.001
625.875	-14.7	-0.000
625.88	-14.8	-0.001
625.885	-14.8	-0.000
625.89	-14.7	-0.000
625.895	-14.7	-0.000
625.9	-14.8	-0.000
625.905	-14.8	-0.000
625.91	-14.7	-0.000
625.915	-14.7	-0.000
625.92	-14.7	-0.000
625.925	-14.7	0.000
625.93	-14.6	-0.000
625.935	-14.7	-0.001
625.94	-14.8	-0.000
625.945	-14.8	-0.000
625.95	-14.7	-0.000
625.955	-14.7	0.000
625.96	-14.8	-0.001
625.965	-14.8	-0.000
625.97	-14.7	-0.000
625.975	-14.8	-0.001
625.98	-14.9	0.000
625.985	-14.9	-0.000
625.99	-14.8	0.000
625.995	-14.8	-0.000
626	-14.9	0.000
626.005	-14.9	-0.001
626.01	-14.8	-0.000
626.015	-14.8	-0.000
626.02	-14.9	-0.000
626.025	-14.9	-0.000
626.03	-14.8	-0.001
626.035	-14.9	-0.000
626.04	-15.0	-0.001
626.045	-14.9	0.000
626.05	-14.8	-0.001
626.055	-14.9	-0.001
626.06	-15.0	0.000
626.065	-14.9	0.000
626.07	-14.9	-0.001
626.075	-14.9	-0.001
626.08	-15.0	-0.000
626.085	-15.0	0.000
626.09	-14.9	-0.001
626.095	-14.9	-0.000
626.1	-15.0	-0.000
626.105	-15.0	0.001
626.11	-14.9	0.000
626.115	-14.9	-0.000
626.12	-15.0	0.000
626.125	-15.0	0.000
626.13	-14.9	-0.000
626.135	-14.9	-0.001
626.14	-15.0	-0.001
626.145	-14.9	-0.000
626.15	-14.8	-0.001
626.155	-14.8	-0.000
626.16	-14.9	-0.000
626.165	-14.9	-0.000
626.17	-14.9	-0.001
626.175	-14.9	-0.001
626.18	-14.9	-0.001
626.185	-14.9	0.000
626.19	-14.8	-0.000
626.195	-14.8	-0.000
626.2	-14.9	-0.001
626.205	-15.0	0.000
626.21	-14.9	-0.000
626.215	-14.9	-0.000
626.22	-15.0	-0.001
626.225	-15.0	0.000
626.23	-15.0	-0.000
626.235	-15.0	-0.000
626.24	-15.0	-0.000
626.245	-15.0	-0.000
626.25	-14.9	0.000
626.255	-14.9	0.000
626.26	-15.0	-0.001
626.265	-15.0	-0.001
626.27	-15.1	-0.001
626.275	-15.1	0.000
626.28	-15.2	-0.000
626.285	-15.1	-0.000
626.29	-15.1	-0.001
626.295	-15.1	-0.001
626.3	-15.2	5.120
626.305	-15.2	-0.001
626.31	-15.1	-0.000
626.315	-15.1	-0.001
626.32	-15.2	0.000
626.325	-15.2	-0.000
626.33	-15.1	-0.001
626.335	-15.1	-0.001
626.34	-15.2	-0.001
626.345	-15.1	-0.000
626.35	-15.0	-0.001
626.355	-15.1	-0.001
626.36	-15.2	0.000
626.365	-15.2	0.000
626.37	-15.1	-0.000
626.375	-15.1	-0.001
626.38	-15.2	-0.001
626.385	-15.1	-0.000
626.39	-15.1	-0.000
626.395	-15.1	-0.000
626.4	-15.2	0.000
626.405	-15.2	-0.000
626.41	-15.1	-0.000
626.415	-15.1	-0.001
626.42	-15.2	-0.000
626.425	-15.2	-0.000
626.43	-15.1	0.000
626.435	-15.1	-0.000
626.44	-15.2	-0.001
626.445	-15.2	-0.000
626.45	-15.1	-0.001
626.455	-15.2	0.000
626.46	-15.3	-0.001
626.465	-15.2	-0.000
626.47	-15.1	-0.000
626.475	-15.1	-0.000
626.48	-15.2	-0.000
626.485	-15.2	0.000
626.49	-15.1	-0.001
626.495	-15.0	0.000
626.5	-15.1	-0.000
626.505	-15.1	0.000
626.51	-15.0	-0.000
626.515	-15.1	-0.000
626.52	-15.1	-0.001
626.525	-15.1	-0.000
626.53	-15.0	-0.001
626.535	-15.1	-0.001
626.54	-15.2	-0.001
626.545	-15.1	-0.000
626.55	-15.0	-0.000
626.555	-15.0	-0.000
626.56	-15.0	-0.000
626.565	-15.0	-0.001
626.57	-14.9	-0.000
626.575	-15.0	0.000
626.58	-15.0	-0.001
626.585	-15.0	0.000
626.59	-15.0	0.000
626.595	-15.0	-0.000
626.6	-15.0	-0.000
626.605	-14.9	-0.000
626.61	-14.8	-0.000
626.615	-14.9	-0.001
626.62	-15.0	-0.001
626.625	-15.0	-0.001
626.63	-14.9	-0.000
626.635	-14.9	-0.000
626.64	-15.0	0.000
626.645	-14.9	0.000
626.65	-14.8	-0.000
626.655	-14.9	-0.001
626.66	-14.9	-0.000
626.665	-14.9	0.000
626.67	-14.8	-0.000
626.675	-14.9	-0.000
626.68	-14.9	0.000
626.685	-14.9	-0.001
626.69	-14.8	-0.001
626.695	-14.9	-0.001
626.7	-15.0	-0.000
626.705	-14.9	0.000
626.71	-14.8	-0.000
626.715	-14.8	-0.000
626.72	-14.9	0.000
626.725	-14.9	-0.000
626.73	-14.8	0.000
626.735	-14.8	-0.000
626.74	-15.0	-0.001
626.745	-15.0	-0.001
626.75	-14.9	-0.000
626.755	-15.0	-0.001
626.76	-15.1	-0.001
626.765	-15.0	-0.000
626.77	-14.8	-0.001
626.775	-14.8	-0.000
626.78	-15.0	-0.001
626.785	-15.0	0.000
626.79	-14.9	-0.000
626.795	-15.0	-0.000
626.8	-15.1	0.000
626.805	-15.0	-0.001
626.81	-14.9	0.000
626.815	-14.8	-0.001
626.82	-14.8	-0.000
626.825	-14.7	-0.001
626.83	-14.6	-0.000
626.835	-14.6	-0.000
626.84	-14.8	-0.000
626.845	-14.8	0.000
626.85	-14.8	-0.000
626.855	-14.8	-0.000
626.86	-15.0	-0.000
626.865	-15.0	-0.000
626.87	-15.0	0.000
626.875	-15.0	-0.000
626.88	-15.1	-0.001
626.885	-15.0	-0.001
626.89	-14.9	0.000
626.895	-14.8	-0.000
626.9	-14.8	-0.001
626.905	-14.7	-0.000
626.91	-14.6	-0.000
626.915	-14.7	0.000
626.92	-14.9	-0.001
626.925	-14.9	0.000
626.93	-14.8	-0.000
626.935	-14.9	-0.000
626.94	-15.0	-0.001
626.945	-14.9	0.000
626.95	-14.8	0.000
626.955	-14.8	0.000
626.96	-14.9	-0.001
626.965	-14.8	0.000
626.97	-14.7	0.000
626.975	-14.7	-0.000
626.98	-14.8	-0.000
626.985	-14.7	-0.000
626.99	-14.6	-0.000
626.995	-14.6	0.000
627	-14.7	-0.001
627.005	-14.7	-0.000
627.01	-14.6	-0.000
627.015	-14.7	0.000
627.02	-14.9	-0.001
627.025	-14.8	-0.000
627.03	-14.6	-0.001
627.035	-14.6	-0.000
627.04	-14.7	-0.001
627.045	-14.6	-0.000
627.05	-14.5	-0.000
627.055	-14.5	0.000
627.06	-14.6	-0.000
627.065	-14.6	0.000
627.07	-14.5	-0.001
627.075	-14.6	-0.001
627.08	-14.7	-0.001
627.085	-14.6	-0.001
627.09	-14.5	-0.001
627.095	-14.6	-0.001
627.1	-14.7	0.000
627.105	-14.7	0.000
627.11	-14.6	-0.000
627.115	-14.6	0.000
627.12	-14.7	-0.000
627.125	-14.7	-0.000
627.13	-14.5	0.000
627.135	-14.5	-0.000
627.14	-14.6	-0.001
627.145	-14.6	-0.000
627.15	-14.5	-0.001
627.155	-14.6	0.000
627.16	-14.7	-0.000
627.165	-14.6	0.000
627.17	-14.6	0.000
627.175	-14.6	0.000
627.18	-14.7	-0.000
627.185	-14.7	-0.001
627.19	-14.5	-0.000
627.195	-14.6	-0.000
627.2	-14.7	-0.000
627.205	-14.7	0.000
627.21	-14.6	-0.000
627.215	-14.6	0.000
627.22	-14.7	-0.000
627.225	-14.7	-0.001
627.23	-14.6	-0.000
627.235	-14.6	-0.000
627.24	-14.7	-0.001
627.245	-14.7	0.000
627.25	-14.7	0.001
627.255	-14.7	-0.001
627.26	-14.8	-0.000
627.265	-14.8	-0.000
627.27	-14.7	-0.001
627.275	-14.8	-0.001
627.28	-14.9	0.000
627.285	-14.8	-0.000
627.29	-14.7	-0.001
627.295	-14.7	0.000
627.3	-14.8	-0.001
627.305	-14.8	-0.000
627.31	-14.7	0.000
627.315	-14.8	-0.001
627.32	-14.9	-0.000
627.325	-14.9	-0.000
627.33	-14.8	-0.000
627.335	-14.9	-0.000
627.34	-15.0	0.000
627.345	-15.0	-0.001
627.35	-14.8	0.000
627.355	-14.9	-0.000
627.36	-14.9	0.000
627.365	-14.9	-0.001
627.37	-14.8	-0.000
627.375	-14.9	-0.000
627.38	-15.0	-0.001
627.385	-14.9	-0.000
627.39	-14.8	0.000
627.395	-14.9	-0.001
627.4	-15.0	-0.000
627.405	-14.8	-0.000
627.41	-14.7	-0.001
627.415	-14.8	-0.001
627.42	-14.9	0.000
627.425	-14.9	0.000
627.43	-14.8	-0.000
627.435	-15.0	-0.000
627.44	-15.1	-0.001
627.445	-15.0	-0.001
627.45	-14.9	-0.000
627.455	-14.9	-0.000
627.46	-15.0	0.000
627.465	-14.9	0.000
627.47	-14.9	-0.000
627.475	-15.0	0.000
627.48	-15.0	-0.000
627.485	-15.0	-0.001
627.49	-14.9	-0.001
627.495	-15.0	-0.000
627.5	-15.2	-0.000
627.505	-15.1	-0.000
627.51	-15.0	-0.001
627.515	-15.1	0.000
627.52	-15.2	-0.000
627.525	-15.1	-0.000
627.53	-15.1	-0.001
627.535	-15.2	0.000
627.54	-15.3	-0.001
627.545	-15.3	-0.000
627.55	-15.2	0.000
627.555	-15.3	0.000
627.56	-15.3	-0.000
627.565	-15.3	0.000
627.57	-15.2	-0.000
627.575	-15.3	-0.001
627.58	-15.4	0.000
627.585	-15.4	-0.001
627.59	-15.4	0.000
627.595	-15.5	0.000
627.6	-15.5	0.000
627.605	-15.4	-0.001
627.61	-15.4	-0.001
627.615	-15.5	-0.000
627.62	-15.6	0.000
627.625	-15.5	-0.001
627.63	-15.5	0.000
627.635	-15.7	0.000
627.64	-15.8	-0.000
627.645	-15.7	-0.001
627.65	-15.6	-0.001
627.655	-15.6	0.000
627.66	-15.7	-0.000
627.665	-15.6	0.000
627.67	-15.6	-0.000
627.675	-15.8	-0.001
627.68	-15.9	-0.001
627.685	-15.8	-0.000
627.69	-15.8	0.000
627.695	-15.9	-0.001
627.7	-15.9	0.000
627.705	-15.8	-0.000
627.71	-15.8	-0.001
627.715	-15.8	0.000
627.72	-15.9	-0.001
627.725	-15.8	-0.001
627.73	-15.8	-0.000
627.735	-15.9	-0.000
627.74	-15.9	-0.000
627.745	-15.9	0.000
627.75	-15.8	0.000
627.755	-15.9	-0.001
627.76	-15.9	0.000
627.765	-15.9	-0.000
627.77	-15.8	-0.000
627.775	-15.9	-0.000
627.78	-16.0	-0.000
627.785	-15.9	-0.001
627.79	-15.8	0.000
627.795	-15.9	0.000
627.8	-15.9	-0.000
627.805	-15.8	0.000
627.81	-15.7	0.000
627.815	-15.8	0.000
627.82	-15.8	0.000
627.825	-15.7	0.000
627.83	-15.7	0.000
627.835	-15.8	-0.000
627.84	-15.8	0.000
627.845	-15.8	-0.001
627.85	-15.7	-0.001
627.855	-15.8	-0.001
627.86	-15.8	-0.000
627.865	-15.7	0.000
627.87	-15.6	-0.001
627.875	-15.6	-0.000
627.88	-15.6	-0.000
627.885	-15.5	-0.000
627.89	-15.4	-0.000
627.895	-15.5	-0.001
627.9	-15.6	-0.000
627.905	-15.5	0.000
627.91	-15.4	0.000
627.915	-15.5	-0.000
627.92	-15.5	-0.000
627.925	-15.4	-0.000
627.93	-15.4	0.000
627.935	-15.5	-0.001
627.94	-15.5	0.000
627.945	-15.3	-0.000
627.95	-15.2	0.000
627.955	-15.3	-0.000
627.96	-15.4	-0.001
627.965	-15.3	-0.001
627.97	-15.2	-0.000
627.975	-15.3	-0.000
627.98	-15.2	-0.001
627.985	-15.1	0.000
627.99	-15.1	-0.001
627.995	-15.2	-0.001
628	-15.2	-0.000
628.005	-15.1	-0.000
628.01	-15.0	-0.000
628.015	-15.1	0.000
628.02	-15.2	0.000
628.025	-15.1	0.000
628.03	-15.0	0.000
628.035	-15.1	0.000
628.04	-15.1	-0.000
628.045	-15.0	-0.001
628.05	-14.9	-0.001
628.055	-15.0	-0.000
628.06	-15.1	-0.001
628.065	-15.0	-0.001
628.07	-14.9	0.000
628.075	-15.0	-0.000
628.08	-15.0	-0.000
628.085	-15.0	-0.001
628.09	-14.9	-0.001
628.095	-15.0	-0.000
628.1	-15.0	-0.001
628.105	-14.9	-0.000
628.11	-14.9	0.000
628.115	-15.0	-0.000
628.12	-15.0	-0.000
628.125	-14.9	-0.000
628.13	-15.0	-0.001
628.135	-15.1	0.000
628.14	-15.1	-0.000
628.145	-15.0	-0.001
628.15	-14.9	-0.000
628.155	-15.1	0.000
628.16	-15.1	0.000
628.165	-15.0	0.000
628.17	-15.0	0.000
628.175	-15.0	0.000
628.18	-15.1	-0.000
628.185	-15.0	-0.001
628.19	-15.0	0.000
628.195	-15.1	-0.001
628.2	-15.1	-0.001
628.205	-15.0	-0.001
628.21	-15.0	-0.001
628.215	-15.1	-0.000
628.22	-15.1	-0.001
628.225	-15.1	-0.001
628.23	-15.0	-0.000
628.235	-15.1	-0.001
628.24	-15.2	-0.000
628.245	-15.1	-0.000
628.25	-15.1	0.000
628.255	-15.1	0.000
628.26	-15.2	0.000
628.265	-15.1	-0.000
628.27	-15.1	-0.001
628.275	-15.2	-0.000
628.28	-15.2	-0.000
628.285	-15.2	-0.000
628.29	-15.2	0.000
628.295	-15.2	0.000
628.3	-15.2	-0.000
628.305	-15.2	-0.001
628.31	-15.1	-0.000
628.315	-15.2	-0.000
628.32	-15.3	-0.001
628.325	-15.2	-0.001
628.33	-15.2	-0.000
628.335	-15.3	-0.000
628.34	-15.3	-0.000
628.345	-15.2	-0.000
628.35	-15.2	-0.001
628.355	-15.3	-0.000
628.36	-15.3	-0.000
628.365	-15.2	-0.000
628.37	-15.2	-0.000
628.375	-15.3	-0.000
628.38	-15.3	-0.000
628.385	-15.3	-0.001
628.39	-15.2	-0.001
628.395	-15.3	-0.001
628.4	-15.3	0.000
628.405	-15.2	-0.001
628.41	-15.2	-0.000
628.415	-15.3	-0.000
628.42	-15.3	0.000
628.425	-15.2	-0.000
628.43	-15.1	-0.000
628.435	-15.2	-0.000
628.44	-15.1	-0.000
628.445	-15.0	-0.000
628.45	-15.1	0.000
628.455	-15.2	-0.000
628.46	-15.3	-0.001
628.465	-15.2	-0.001
628.47	-15.2	-0.001
628.475	-15.3	-0.000
628.48	-15.3	-0.000
628.485	-15.2	-0.000
628.49	-15.2	-0.001
628.495	-15.3	-0.000
628.5	-15.2	-0.000
628.505	-15.1	-0.000
628.51	-15.1	-0.000
628.515	-15.2	-0.001
628.52	-15.2	0.000
628.525	-15.1	-0.001
628.53	-15.1	-0.001
628.535	-15.2	-0.000
628.54	-15.2	0.000
628.545	-15.2	-0.000
628.55	-15.2	-0.000
628.555	-15.2	0.000
628.56	-15.2	-0.000
628.565	-15.1	-0.001
628.57	-15.1	-0.001
628.575	-15.2	-0.000
628.58	-15.1	0.000
628.585	-15.0	0.000
628.59	-15.1	-0.001
628.595	-15.1	-0.001
628.6	-15.1	-0.000
628.605	-15.0	-0.000
628.61	-15.0	-0.000
628.615	-15.0	0.000
628.62	-15.0	-0.000
628.625	-14.9	-0.001
628.63	-14.9	-0.000
628.635	-15.0	-0.000
628.64	-15.0	-0.000
628.645	-14.9	-0.000
628.65	-15.0	-0.000
628.655	-15.0	-0.001
628.66	-15.0	0.000
628.665	-15.0	-0.001
628.67	-15.0	0.000
628.675	-15.1	0.000
628.68	-15.1	-0.000
628.685	-15.1	-0.001
628.69	-15.1	0.000
628.695	-15.2	-0.000
628.7	-15.2	-0.000
628.705	-15.1	-0.000
628.71	-15.2	-0.000
628.715	-15.3	-0.001
628.72	-15.2	0.000
628.725	-15.2	0.000
628.73	-15.2	-0.001
628.735	-15.3	0.000
628.74	-15.2	0.000
628.745	-15.2	-0.001
628.75	-15.2	0.000
628.755	-15.3	0.000
628.76	-15.3	-0.001
628.765	-15.2	-0.000
628.77	-15.3	-0.001
628.775	-15.4	-0.001
628.78	-15.4	0.000
628.785	-15.3	-0.001
628.79	-15.3	-0.000
628.795	-15.4	-0.000
628.8	-15.4	-0.000
628.805	-15.3	0.000
628.81	-15.4	-0.000
628.815	-15.5	-0.001
628.82	-15.4	0.000
628.825	-15.4	-0.000
628.83	-15.4	-0.000
628.835	-15.5	-0.000
628.84	-15.4	0.001
628.845	-15.4	-0.000
628.85	-15.4	0.000
628.855	-15.4	0.000
628.86	-15.4	-0.000
628.865	-15.4	0.000
628.87	-15.5	-0.000
628.875	-15.5	-0.000
628.88	-15.5	0.000
628.885	-15.5	0.000
628.89	-15.5	-0.000
628.895	-15.5	-0.000
628.9	-15.4	-0.001
628.905	-15.4	-0.000
628.91	-15.4	-0.000
628.915	-15.5	-0.001
628.92	-15.5	-0.001
628.925	-15.4	-0.000
628.93	-15.5	-0.001
628.935	-15.5	-0.001
628.94	-15.4	-0.000
628.945	-15.4	-0.001
628.95	-15.5	-0.000
628.955	-15.5	-0.001
628.96	-15.4	-0.000
628.965	-15.4	0.000
628.97	-15.5	0.000
628.975	-15.5	-0.000
628.98	-15.5	-0.000
628.985	-15.4	-0.000
628.99	-15.4	-0.000
628.995	-15.5	0.000
629	-15.4	-0.000
629.005	-15.4	-0.000
629.01	-15.5	-0.000
629.015	-15.5	-0.001
629.02	-15.4	-0.001
629.025	-15.4	-0.000
629.03	-15.4	-0.000
629.035	-15.4	-0.000
629.04	-15.4	-0.000
629.045	-15.4	-0.000
629.05	-15.4	-0.000
629.055	-15.4	-0.001
629.06	-15.3	-0.001
629.065	-15.3	0.000
629.07	-15.4	-0.000
629.075	-15.4	0.000
629.08	-15.3	-0.000
629.085	-15.3	0.000
629.09	-15.3	0.000
629.095	-15.3	-0.001
629.1	-15.3	-0.001
629.105	-15.2	-0.000
629.11	-15.3	-0.001
629.115	-15.3	0.000
629.12	-15.2	-0.000
629.125	-15.2	-0.000
629.13	-15.2	-0.000
629.135	-15.3	-0.000
629.14	-15.2	-0.000
629.145	-15.2	-0.001
629.15	-15.2	-0.000
629.155	-15.2	-0.001
629.16	-15.2	-0.000
629.165	-15.2	-0.001
629.17	-15.2	0.000
629.175	-15.2	-0.001
629.18	-15.2	-0.001
629.185	-15.2	-0.001
629.19	-15.3	0.000
629.195	-15.3	-0.001
629.2	-15.3	0.000
629.205	-15.2	-0.001
629.21	-15.2	-0.001
629.215	-15.2	-0.001
629.22	-15.2	-0.000
629.225	-15.2	0.000
629.23	-15.2	-0.000
629.235	-15.2	-0.001
629.24	-15.2	-0.000
629.245	-15.2	-0.001
629.25	-15.2	-0.000
629.255	-15.3	-0.000
629.26	-15.2	-0.001
629.265	-15.2	0.000
629.27	-15.3	-0.000
629.275	-15.3	-0.000
629.28	-15.2	-0.001
629.285	-15.2	0.000
629.29	-15.3	-0.000
629.295	-15.3	-0.001
629.3	-15.2	-0.001
629.305	-15.2	-0.001
629.31	-15.3	-0.001
629.315	-15.2	0.000
629.32	-15.2	-0.001
629.325	-15.1	-0.001
629.33	-15.2	-0.000
629.335	-15.2	-0.000
629.34	-15.2	-0.000
629.345	-15.1	-0.000
629.35	-15.2	-0.001
629.355	-15.2	0.000
629.36	-15.1	-0.000
629.365	-15.2	-0.000
629.37	-15.3	-0.001
629.375	-15.3	0.000
629.38	-15.3	0.000
629.385	-15.2	0.000
629.39	-15.2	0.000
629.395	-15.2	-0.001
629.4	-15.2	-0.000
629.405	-15.2	0.000
629.41	-15.2	-0.000
629.415	-15.1	-0.000
629.42	-15.1	-0.000
629.425	-15.1	-0.000
629.43	-15.2	-0.000
629.435	-15.1	0.000
629.44	-15.1	0.000
629.445	-15.0	-0.000
629.45	-15.1	-0.001
629.455	-15.1	-0.000
629.46	-15.1	-0.000
629.465	-15.0	-0.000
629.47	-15.1	0.000
629.475	-15.1	-0.001
629.48	-15.1	-0.000
629.485	-15.1	-0.000
629.49	-15.1	-0.000
629.495	-15.1	-0.000
629.5	-15.0	0.000
629.505	-15.0	-0.001
629.51	-15.0	-0.001
629.515	-15.0	0.000
629.52	-15.0	-0.001
629.525	-15.0	-0.001
629.53	-15.0	0.000
629.535	-15.0	-0.001
629.54	-14.9	-0.001
629.545	-14.9	-0.001
629.55	-15.0	-0.000
629.555	-15.0	-0.000
629.56	-14.9	0.000
629.565	-14.9	-0.000
629.57	-15.0	-0.000
629.575	-15.0	0.000
629.58	-15.0	-0.001
629.585	-15.0	-0.001
629.59	-15.0	-0.000
629.595	-15.0	-0.000
629.6	-14.9	-0.000
629.605	-14.8	-0.000
629.61	-14.9	-0.000
629.615	-15.0	-0.001
629.62	-14.9	-0.001
629.625	-14.9	0.000
629.63	-15.0	0.000
629.635	-15.0	-0.001
629.64	-14.9	-0.000
629.645	-14.9	0.000
629.65	-14.9	0.000
629.655	-14.9	-0.000
629.66	-14.9	-0.000
629.665	-14.9	-0.000
629.67	-15.0	-0.000
629.675	-15.0	-0.000
629.68	-15.0	-0.001
629.685	-15.0	-0.000
629.69	-15.0	0.000
629.695	-15.0	0.000
629.7	-15.0	-0.000
629.705	-14.9	-0.001
629.71	-15.0	-0.000
629.715	-15.0	-0.000
629.72	-15.0	-0.001
629.725	-15.0	-0.001
629.73	-15.1	-0.001
629.735	-15.1	-0.001
629.74	-15.0	-0.001
629.745	-15.0	-0.001
629.75	-15.0	-0.000
629.755	-15.0	-0.000
629.76	-14.9	-0.000
629.765	-14.9	-0.001
629.77	-15.0	-0.000
629.775	-15.0	0.000
629.78	-15.0	-0.000
629.785	-15.0	0.000
629.79	-15.1	-0.001
629.795	-15.1	-0.000
629.8	-15.0	-0.000
629.805	-15.0	-0.000
629.81	-15.1	-0.001
629.815	-15.1	0.000
629.82	-15.0	-0.000
629.825	-15.0	-0.000
629.83	-15.1	-0.001
629.835	-15.1	-0.000
629.84	-15.1	-0.000
629.845	-15.1	-0.000
629.85	-15.1	0.000
629.855	-15.1	-0.000
629.86	-15.1	-0.000
629.865	-15.1	-0.000
629.87	-15.1	0.000
629.875	-15.1	-0.001
629.88	-15.1	-0.000
629.885	-15.2	0.000
629.89	-15.3	-0.000
629.895	-15.3	0.000
629.9	-15.2	-0.000
629.905	-15.1	-0.000
629.91	-15.1	0.000
629.915	-15.1	-0.000
629.92	-15.1	0.000
629.925	-15.1	-0.001
629.93	-15.2	0.000
629.935	-15.1	-0.001
629.94	-15.1	-0.000
629.945	-15.1	-0.000
629.95	-15.1	-0.000
629.955	-15.1	0.000
629.96	-15.1	0.000
629.965	-15.1	-0.000
629.97	-15.1	-0.001
629.975	-15.1	-0.000
629.98	-15.1	-0.000
629.985	-15.1	-0.001
629.99	-15.1	-0.000
629.995	-15.1	0.000
630	-15.0	-0.000
630.005	-15.0	0.000
630.01	-15.1	-0.000
630.015	-15.1	0.000
630.02	-15.1	-0.000
630.025	-15.1	-0.000
630.03	-15.2	0.000
630.035	-15.2	-0.000
630.04	-15.1	-0.000
630.045	-15.1	-0.000
630.05	-15.2	-0.001
630.055	-15.1	-0.000
630.06	-15.1	-0.001
630.065	-15.0	-0.001
630.07	-15.1	-0.001
630.075	-15.1	-0.001
630.08	-15.1	-0.000
630.085	-15.1	-0.000
630.09	-15.1	0.000
630.095	-15.1	-0.000
630.1	-15.1	-0.000
630.105	-15.1	-0.000
630.11	-15.1	-0.001
630.115	-15.1	-0.001
630.12	-15.0	-0.000
630.125	-15.0	-0.000
630.13	-15.1	-0.001
630.135	-15.1	0.000
630.14	-15.1	-0.000
630.145	-15.1	0.000
630.15	-15.1	-0.001
630.155	-15.1	-0.001
630.16	-15.1	-0.001
630.165	-15.1	-0.000
630.17	-15.1	-0.000
630.175	-15.0	-0.000
630.18	-15.0	-0.000
630.185	-15.0	-0.001
630.19	-15.1	-0.000
630.195	-15.1	-0.000
630.2	-15.0	-0.000
630.205	-15.0	-0.000
630.21	-15.1	0.000
630.215	-15.1	-0.000
630.22	-15.0	-0.000
630.225	-15.0	-0.001
630.23	-15.0	-0.000
630.235	-15.1	0.000
630.24	-15.0	-0.000
630.245	-15.0	-0.000
630.25	-15.1	-0.000
630.255	-15.0	0.000
630.26	-15.0	0.000
630.265	-14.9	-0.000
630.27	-15.0	-0.000
630.275	-15.0	0.000
630.28	-15.0	-0.000
630.285	-15.0	0.000
630.29	-15.0	0.000
630.295	-15.0	-0.001
630.3	-15.0	0.000
630.305	-15.0	-0.000
630.31	-15.0	-0.000
630.315	-15.0	-0.000
630.32	-14.9	0.000
630.325	-14.9	-0.001
630.33	-15.0	-0.001
630.335	-14.9	-0.000
630.34	-14.9	-0.001
630.345	-14.9	-0.000
630.35	-14.9	-0.000
630.355	-14.9	-0.000
630.36	-14.9	-0.001
630.365	-14.9	-0.000
630.37	-14.9	-0.000
630.375	-14.9	-0.000
630.38	-14.8	0.000
630.385	-14.8	-0.000
630.39	-14.9	0.000
630.395	-14.8	-0.000
630.4	-14.8	-0.000
630.405	-14.8	-0.000
630.41	-14.9	0.000
630.415	-14.8	0.000
630.42	-14.8	-0.001
630.425	-14.8	-0.001
630.43	-14.8	-0.001
630.435	-14.8	-0.000
630.44	-14.7	-0.000
630.445	-14.8	-0.001
630.45	-14.8	-0.000
630.455	-14.8	0.000
630.46	-14.8	-0.000
630.465	-14.8	0.000
630.47	-14.9	0.000
630.475	-14.8	0.000
630.48	-14.8	-0.000
630.485	-14.8	-0.001
630.49	-14.9	-0.001
630.495	-14.8	-0.001
630.5	-14.8	-0.001
630.505	-14.8	-0.001
630.51	-14.9	-0.000
630.515	-14.9	-0.000
630.52	-14.8	-0.000
630.525	-14.9	-0.001
630.53	-14.9	0.000
630.535	-14.9	-0.000
630.54	-14.9	0.000
630.545	-14.9	-0.000
630.55	-15.0	-0.001
630.555	-15.0	0.000
630.56	-14.9	0.000
630.565	-15.0	-0.000
630.57	-15.1	-0.000
630.575	-15.1	-0.000
630.58	-15.0	-0.001
630.585	-15.1	-0.000
630.59	-15.1	0.000
630.595	-15.1	-0.000
630.6	-15.1	0.000
630.605	-15.1	-0.000
630.61	-15.2	-0.001
630.615	-15.2	-0.000
630.62	-15.2	0.000
630.625	-15.2	-0.000
630.63	-15.3	0.000
630.635	-15.3	-0.000
630.64	-15.3	-0.000
630.645	-15.3	-0.001
630.65	-15.3	0.000
630.655	-15.3	-0.001
630.66	-15.2	-0.000
630.665	-15.3	-0.001
630.67	-15.3	-0.000
630.675	-15.9	-0.001
630.68	-19.6	-0.000
630.685	-17.3	0.000
630.69	-14.1	-0.000
630.695	-13.9	-0.000
630.7	-14.2	-0.001
630.705	-14.4	-0.000
630.71	-14.4	-0.001
630.715	-14.5	-0.000
630.72	-14.5	0.000
630.725	-14.6	-0.001
630.73	-14.7	0.000
630.735	-14.8	-0.001
630.74	-14.8	-0.000
630.745	-14.9	0.000
630.75	-14.9	-0.000
630.755	-14.9	-0.001
630.76	-14.9	0.000
630.765	-14.9	-0.000
630.77	-15.0	0.000
630.775	-15.0	0.000
630.78	-15.0	-0.000
630.785	-15.0	-0.000
630.79	-15.1	-0.001
630.795	-15.1	0.000
630.8	-15.1	-0.001
630.805	-15.1	-0.000
630.81	-15.1	0.000
630.815	-15.1	0.000
630.82	-15.1	-0.001
630.825	-15.1	-0.001
630.83	-15.2	-0.001
630.835	-15.1	0.000
630.84	-15.1	-0.001
630.845	-15.1	-0.000
630.85	-15.1	0.000
630.855	-15.0	-0.000
630.86	-14.9	-0.001
630.865	-15.0	0.000
630.87	-15.1	-0.001
630.875	-15.1	-0.001
630.88	-15.0	-0.000
630.885	-15.0	-0.000
630.89	-15.0	-0.000
630.895	-15.0	0.000
630.9	-15.0	-0.001
630.905	-15.0	0.000
630.91	-14.9	0.000
630.915	-14.8	-0.001
630.92	-14.8	-0.000
630.925	-14.8	-0.000
630.93	-14.9	-0.001
630.935	-14.9	-0.000
630.94	-14.8	-0.000
630.945	-14.9	-0.001
630.95	-14.9	-0.000
630.955	-14.8	-0.000
630.96	-14.8	-0.000
630.965	-14.8	0.000
630.97	-14.9	-0.001
630.975	-14.9	0.000
630.98	-14.8	-0.001
630.985	-14.9	-0.001
630.99	-15.0	-0.000
630.995	-15.0	-0.000
631	-15.0	-0.001
631.005	-15.1	-0.000
631.01	-15.2	0.000
631.015	-15.2	-0.000
631.02	-15.2	-0.000
631.025	-15.3	-0.001
631.03	-15.3	-0.000
631.035	-15.4	-0.000
631.04	-15.4	0.000
631.045	-15.5	-0.000
631.05	-15.5	-0.000
631.055	-15.6	-0.001
631.06	-15.6	-0.000
631.065	-15.7	-0.001
631.07	-15.7	-0.001
631.075	-15.7	-0.000
631.08	-15.7	0.000
631.085	-15.8	-0.000
631.09	-15.8	-0.001
631.095	-15.9	-0.000
631.1	-15.9	-0.000
631.105	-15.9	-0.000
631.11	-16.0	-0.000
631.115	-16.0	-0.001
631.12	-15.9	-0.001
631.125	-16.0	-0.000
631.13	-16.0	-0.001
631.135	-16.0	0.000
631.14	-16.0	-0.001
631.145	-16.0	-0.000
631.15	-16.0	-0.001
631.155	-16.0	0.000
631.16	-16.0	-0.000
631.165	-16.0	0.000
631.17	-16.0	-0.001
631.175	-16.0	-0.000
631.18	-16.0	-0.000
631.185	-16.0	0.000
631.19	-16.0	-0.001
631.195	-16.0	-0.001
631.2	-16.0	-0.001
631.205	-16.0	-0.000
631.21	-16.0	0.000
631.215	-16.0	-0.000
631.22	-15.9	-0.001
631.225	-16.0	-0.000
631.23	-16.0	-0.000
631.235	-15.9	-0.000
631.24	-15.9	-0.001
631.245	-15.9	-0.001
631.25	-15.9	-0.000
631.255	-15.9	0.000
631.26	-15.8	-0.000
631.265	-15.8	-0.000
631.27	-15.8	0.000
631.275	-15.8	-0.001
631.28	-15.7	-0.000
631.285	-15.7	-0.000
631.29	-15.7	-0.001
631.295	-15.7	-0.001
631.3	-15.7	-0.000
631.305	-15.7	-0.001
631.31	-15.7	-0.000
631.315	-15.7	-0.001
631.32	-15.6	-0.000
631.325	-15.6	-0.001
631.33	-15.6	-0.001
631.335	-15.6	-0.000
631.34	-15.5	-0.001
631.345	-15.5	-0.001
631.35	-15.5	-0.001
631.355	-15.4	0.000
631.36	-15.4	0.000
631.365	-15.5	-0.001
631.37	-15.5	0.000
631.375	-15.4	-0.001
631.38	-15.4	-0.000
631.385	-15.4	-0.001
631.39	-15.4	-0.000
631.395	-15.3	-0.001
631.4	-15.3	-0.000
631.405	-15.3	-0.000
631.41	-15.3	-0.001
631.415	-15.2	-0.001
631.42	-15.2	-0.000
631.425	-15.2	-0.001
631.43	-15.2	-0.001
631.435	-15.2	-0.001
631.44	-15.1	-0.000
631.445	-15.2	-0.000
631.45	-15.2	-0.000
631.455	-15.1	-0.001
631.46	-15.1	-0.000
631.465	-15.1	0.000
631.47	-15.1	-0.000
631.475	-15.1	-0.000
631.48	-15.1	-0.001
631.485	-15.1	0.000
631.49	-15.1	-0.000
631.495	-15.0	0.000
631.5	-15.0	-0.001
631.505	-15.1	-0.000
631.51	-15.1	-0.000
631.515	-15.0	-0.000
631.52	-15.0	-0.000
631.525	-15.0	-0.001
631.53	-15.1	-0.000
631.535	-15.0	-0.000
631.54	-15.0	-0.000
631.545	-15.0	-0.001
631.55	-15.0	0.000
631.555	-14.9	-0.001
631.56	-14.9	-0.000
631.565	-15.0	0.000
631.57	-15.0	0.000
631.575	-14.9	-0.001
631.58	-14.9	0.000
631.585	-15.0	-0.001
631.59	-15.0	-0.000
631.595	-15.0	-0.001
631.6	-14.9	-0.001
631.605	-15.0	-0.000
631.61	-15.0	-0.001
631.615	-15.0	-0.001
631.62	-15.0	-0.001
631.625	-15.0	-0.000
631.63	-15.0	-0.000
631.635	-15.0	0.000
631.64	-15.0	0.000
631.645	-15.0	-0.000
631.65	-15.1	-0.000
631.655	-15.0	-0.000
631.66	-15.0	-0.000
631.665	-15.0	-0.000
631.67	-15.1	0.000
631.675	-15.0	0.000
631.68	-15.0	-0.000
631.685	-15.1	-0.001
631.69	-15.1	0.000
631.695	-15.0	-0.000
631.7	-15.0	-0.000
631.705	-15.1	-0.001
631.71	-15.1	-0.001
631.715	-15.1	-0.001
631.72	-15.1	-0.001
631.725	-15.1	0.000
631.73	-15.1	-0.001
631.735	-15.1	-0.000
631.74	-15.1	0.000
631.745	-15.2	-0.000
631.75	-15.2	-0.000
631.755	-15.1	-0.000
631.76	-15.1	-0.000
631.765	-15.1	0.000
631.77	-15.1	-0.000
631.775	-15.1	-0.000
631.78	-15.1	0.000
631.785	-15.2	0.000
631.79	-15.2	0.000
631.795	-15.2	-0.000
631.8	-15.2	-0.001
631.805	-15.2	-0.001
631.81	-15.2	-0.001
631.815	-15.1	-0.001
631.82	-15.1	-0.001
631.825	-15.1	-0.001
631.83	-15.1	-0.000
631.835	-15.1	-0.000
631.84	-15.1	-0.000
631.845	-15.2	0.000
631.85	-15.2	-0.000
631.855	-15.2	0.000
631.86	-15.2	-0.000
631.865	-15.2	-0.001
631.87	-15.2	-0.001
631.875	-15.2	0.000
631.88	-15.1	-0.001
631.885	-15.2	-0.001
631.89	-15.2	-0.000
631.895	-15.2	-0.001
631.9	-15.2	0.000
631.905	-15.2	-0.000
631.91	-15.2	-0.001
631.915	-15.2	-0.001
631.92	-15.2	-0.000
631.925	-15.2	-0.000
631.93	-15.2	0.000
631.935	-15.2	-0.001
631.94	-15.2	-0.000
631.945	-15.2	-0.001
631.95	-15.2	0.000
631.955	-15.1	-0.001
631.96	-15.1	-0.001
631.965	-15.2	-0.001
631.97	-15.2	-0.001
631.975	-15.1	-0.000
631.98	-15.1	-0.000
631.985	-15.1	-0.000
631.99	-15.1	-0.000
631.995	-15.1	-0.000
632	-15.1	-0.001
632.005	-15.1	0.000
632.01	-15.1	-0.000
632.015	-15.1	-0.000
632.02	-15.0	0.000
632.025	-15.1	-0.000
632.03	-15.1	-0.001
632.035	-15.0	0.000
632.04	-15.0	-0.001
632.045	-15.1	-0.001
632.05	-15.1	0.000
632.055	-15.0	-0.000
632.06	-15.0	0.000
632.065	-15.1	-0.001
632.07	-15.1	-0.000
632.075	-15.0	0.000
632.08	-15.0	-0.001
632.085	-15.1	-0.001
632.09	-15.1	-0.001
632.095	-15.0	-0.000
632.1	-15.0	0.000
632.105	-15.0	0.000
632.11	-15.0	0.000
632.115	-15.0	-0.000
632.12	-15.0	0.000
632.125	-15.1	-0.000
632.13	-15.0	-0.000
632.135	-15.0	0.000
632.14	-15.0	-0.000
632.145	-15.1	-0.000
632.15	-15.0	-0.000
632.155	-15.0	0.000
632.16	-15.0	-0.001
632.165	-15.0	-0.001
632.17	-15.0	-0.001
632.175	-15.0	-0.001
632.18	-15.0	-0.001
632.185	-15.0	-0.001
632.19	-15.0	0.000
632.195	-15.0	-0.001
632.2	-14.9	-0.001
632.205	-15.0	0.000
632.21	-15.0	-0.000
632.215	-15.0	-0.001
632.22	-15.0	-0.000
632.225	-15.0	-0.000
632.23	-15.0	-0.000
632.235	-15.0	-0.000
632.24	-15.0	-0.001
632.245	-15.0	-0.001
632.25	-15.0	-0.001
632.255	-15.0	-0.000
632.26	-15.0	-0.001
632.265	-15.0	-0.000
632.27	-15.0	-0.000
632.275	-15.0	-0.001
632.28	-15.0	0.000
632.285	-15.0	-0.001
632.29	-15.0	-0.001
632.295	-14.9	-0.000
632.3	-14.9	0.000
632.305	-14.9	0.000
632.31	-14.9	-0.001
632.315	-14.9	-0.001
632.32	-14.9	-0.001
632.325	-14.9	0.000
632.33	-14.9	-0.000
632.335	-14.8	-0.000
632.34	-14.8	-0.000
632.345	-14.9	0.000
632.35	-14.8	-0.001
632.355	-14.7	-0.000
632.36	-14.7	0.000
632.365	-14.8	-0.000
632.37	-14.8	0.000
632.375	-14.7	-0.000
632.38	-14.7	-0.001
632.385	-14.7	0.000
632.39	-14.7	-0.001
632.395	-14.7	-0.001
632.4	-14.7	-0.000
632.405	-14.7	-0.001
632.41	-14.7	-0.000
632.415	-14.6	-0.000
632.42	-14.6	-0.001
632.425	-14.6	0.000
632.43	-14.6	0.000
632.435	-14.6	-0.001
632.44	-14.7	0.000
632.445	-14.6	0.000
632.45	-14.6	0.000
632.455	-14.5	-0.001
632.46	-14.6	-0.001
632.465	-14.6	0.000
632.47	-14.6	-0.001
632.475	-14.5	0.000
632.48	-14.5	0.000
632.485	-14.6	0.000
632.49	-14.6	-0.000
632.495	-14.6	-0.001
632.5	-14.6	0.000
632.505	-14.6	0.000
632.51	-14.5	-0.000
632.515	-14.6	-0.000
632.52	-14.7	0.000
632.525	-14.7	-0.000
632.53	-14.7	0.000
632.535	-14.6	-0.001
632.54	-14.6	0.000
632.545	-14.6	-0.000
632.55	-14.6	-0.000
632.555	-14.5	0.000
632.56	-14.6	-0.001
632.565	-14.6	-0.000
632.57	-14.6	-0.000
632.575	-14.5	-0.000
632.58	-14.6	0.000
632.585	-14.6	-0.000
632.59	-14.6	0.000
632.595	-14.5	-0.001
632.6	-14.6	0.000
632.605	-14.6	-0.001
632.61	-14.6	0.000
632.615	-14.6	-0.000
632.62	-14.6	0.000
632.625	-14.7	0.000
632.63	-14.7	-0.001
632.635	-14.7	0.000
632.64	-14.6	-0.001
632.645	-14.6	0.000
632.65	-14.7	0.001
632.655	-14.7	0.000
632.66	-14.7	-0.000
632.665	-14.8	0.000
632.67	-14.7	-0.000
632.675	-14.7	-0.001
632.68	-14.7	-0.000
632.685	-14.7	-0.001
632.69	-14.7	0.000
632.695	-14.7	-0.000
632.7	-14.7	-0.001
632.705	-14.8	-0.000
632.71	-14.8	0.000
632.715	-14.7	-0.001
632.72	-14.7	-0.000
632.725	-14.8	-0.000
632.73	-14.8	-0.000
632.735	-14.7	0.000
632.74	-14.7	-0.000
632.745	-14.7	-0.000
632.75	-14.7	0.000
632.755	-14.7	0.000
632.76	-14.7	0.000
632.765	-14.8	-0.000
632.77	-14.8	-0.000
632.775	-14.7	0.000
632.78	-14.7	-0.001
632.785	-14.7	-0.000
632.79	-14.7	-0.001
632.795	-14.7	-0.000
632.8	-14.7	-0.001
632.805	-14.7	0.000
632.81	-14.7	-0.000
632.815	-14.7	-0.000
632.82	-14.7	-0.000
632.825	-14.7	-0.001
632.83	-14.7	-0.001
632.835	-14.7	-0.000
632.84	-14.7	-0.001
632.845	-14.7	-0.000
632.85	-14.6	-0.000
632.855	-14.6	-0.001
632.86	-14.6	-0.000
632.865	-14.7	-0.001
632.87	-14.7	-0.001
632.875	-14.6	-0.001
632.88	-14.6	-0.000
632.885	-14.6	-0.000
632.89	-14.5	-0.000
632.895	-14.5	0.000
632.9	-14.5	0.000
632.905	-14.6	-0.001
632.91	-14.5	-0.001
632.915	-14.5	-0.001
632.92	-14.5	-0.001
632.925	-14.6	-0.001
632.93	-14.6	0.000
632.935	-14.6	-0.000
632.94	-14.5	-0.000
632.945	-14.5	-0.000
632.95	-14.5	0.000
632.955	-14.5	-0.000
632.96	-14.5	0.000
632.965	-14.5	-0.000
632.97	-14.5	-0.000
632.975	-14.4	0.000
632.98	-14.4	-0.001
632.985	-14.4	-0.000
632.99	-14.4	0.000
632.995	-14.4	-0.001
633	-14.4	-0.000
633.005	-14.5	0.000
633.01	-14.5	0.000
633.015	-14.9	-0.001
633.02	-18.6	-0.000
633.025	-17.0	-0.001
633.03	-13.4	-0.000
633.035	-13.0	-0.000
633.04	-13.4	-0.001
633.045	-13.5	-0.001
633.05	-13.6	-0.001
633.055	-13.6	-0.001
633.06	-13.7	-0.000
633.065	-13.8	-0.001
633.07	-13.9	0.000
633.075	-13.9	-0.001
633.08	-14.0	-0.000
633.085	-14.1	-0.001
633.09	-14.1	-0.001
633.095	-14.1	-0.001
633.1	-14.2	-0.000
633.105	-14.2	0.000
633.11	-14.2	-0.000
633.115	-14.2	-0.001
633.12	-14.3	-0.001
633.125	-14.3	-0.001
633.13	-14.3	-0.000
633.135	-14.3	-0.001
633.14	-14.3	-0.000
633.145	-14.4	-0.001
633.15	-14.4	-0.001
633.155	-14.3	-0.000
633.16	-14.3	-0.001
633.165	-14.3	-0.000
633.17	-14.3	0.000
633.175	-14.3	-0.000
633.18	-14.3	-0.000
633.185	-14.4	0.000
633.19	-14.4	0.000
633.195	-14.3	-0.000
633.2	-14.3	-0.000
633.205	-14.3	-0.000
633.21	-14.3	0.000
633.215	-14.3	0.000
633.22	-14.3	-0.000
633.225	-14.3	-0.001
633.23	-14.2	0.000
633.235	-14.2	0.000
633.24	-14.3	-0.000
633.245	-14.3	0.000
633.25	-14.3	-0.001
633.255	-14.3	-0.000
633.26	-14.3	0.000
633.265	-14.4	0.000
633.27	-14.4	-0.000
633.275	-14.4	-0.001
633.28	-14.5	-0.001
633.285	-14.5	-0.001
633.29	-14.5	-0.001
633.295	-14.5	-0.000
633.3	-14.5	-0.001
633.305	-14.6	-0.000
633.31	-14.6	-0.000
633.315	-14.6	-0.001
633.32	-14.7	-0.001
633.325	-14.8	-0.000
633.33	-14.8	-0.001
633.335	-14.8	-0.001
633.34	-14.9	-0.001
633.345	-15.0	-0.001
633.35	-15.0	-0.001
633.355	-15.0	-0.001
633.36	-15.0	-0.000
633.365	-15.1	-0.001
633.37	-15.2	-0.000
633.375	-15.2	-0.001
633.38	-15.3	-0.001
633.385	-15.3	-0.000
633.39	-15.3	-0.001
633.395	-15.4	-0.001
633.4	-15.4	0.000
633.405	-15.5	-0.001
633.41	-15.5	0.000
633.415	-15.6	-0.001
633.42	-15.6	0.000
633.425	-15.7	-0.000
633.43	-15.6	-0.001
633.435	-15.7	-0.000
633.44	-15.7	-0.000
633.445	-15.8	-0.001
633.45	-15.8	-0.001
633.455	-15.8	0.000
633.46	-15.8	0.000
633.465	-15.8	-0.001
633.47	-15.8	-0.001
633.475	-15.8	-0.000
633.48	-15.8	-0.001
633.485	-15.8	-0.000
633.49	-15.8	-0.000
633.495	-15.8	-0.000
633.5	-15.8	-0.000
633.505	-15.9	-0.001
633.51	-15.8	-0.000
633.515	-15.8	-0.000
633.52	-15.8	-0.000
633.525	-15.8	-0.000
633.53	-15.8	0.000
633.535	-15.7	-0.001
633.54	-15.7	-0.000
633.545	-15.8	-0.000
633.55	-15.7	0.000
633.555	-15.7	-0.000
633.56	-15.6	-0.001
633.565	-15.6	-0.001
633.57	-15.6	-0.001
633.575	-15.6	-0.000
633.58	-15.6	-0.000
633.585	-15.6	-0.000
633.59	-15.5	-0.000
633.595	-15.5	-0.000
633.6	-15.5	-0.001
633.605	-15.5	-0.000
633.61	-15.5	-0.000
633.615	-15.5	0.000
633.62	-15.5	-0.000
633.625	-15.5	0.000
633.63	-15.4	-0.000
633.635	-15.4	0.000
633.64	-15.4	0.000
633.645	-15.4	0.000
633.65	-15.4	0.000
633.655	-15.4	-0.001
633.66	-15.3	-0.001
633.665	-15.3	-0.000
633.67	-15.3	0.000
633.675	-15.2	-0.000
633.68	-15.2	-0.000
633.685	-15.2	-0.000
633.69	-15.2	0.000
633.695	-15.1	-0.000
633.7	-15.1	-0.000
633.705	-15.2	-0.001
633.71	-15.1	-0.001
633.715	-15.0	-0.000
633.72	-15.0	0.000
633.725	-15.1	-0.000
633.73	-15.0	0.000
633.735	-15.0	0.000
633.74	-15.0	0.000
633.745	-15.0	-0.000
633.75	-14.9	-0.001
633.755	-14.9	0.000
633.76	-15.0	-0.000
633.765	-15.0	-0.001
633.77	-15.0	-0.000
633.775	-14.9	-0.000
633.78	-15.0	0.000
633.785	-14.9	-0.001
633.79	-14.9	-0.001
633.795	-14.9	-0.001
633.8	-14.9	-0.001
633.805	-15.0	-0.000
633.81	-14.9	-0.000
633.815	-14.9	0.000
633.82	-14.9	-0.001
633.825	-15.0	-0.001
633.83	-14.9	-0.001
633.835	-14.9	0.000
633.84	-14.9	0.000
633.845	-14.9	-0.000
633.85	-14.9	-0.000
633.855	-14.9	-0.000
633.86	-14.9	0.000
633.865	-14.9	-0.001
633.87	-14.8	-0.001
633.875	-14.8	-0.000
633.88	-14.8	-0.001
633.885	-14.8	0.000
633.89	-14.8	-0.000
633.895	-14.8	-0.000
633.9	-14.8	-0.000
633.905	-14.8	-0.001
633.91	-14.8	-0.000
633.915	-14.7	-0.001
633.92	-14.8	0.001
633.925	-14.8	-0.000
633.93	-14.7	-0.000
633.935	-14.7	-0.000
633.94	-14.7	-0.000
633.945	-14.7	-0.001
633.95	-14.7	-0.001
633.955	-14.7	-0.000
633.96	-14.8	-0.001
633.965	-14.8	-0.000
633.97	-14.8	-0.000
633.975	-14.7	-0.001
633.98	-14.7	-0.001
633.985	-14.7	-0.001
633.99	-14.7	-0.001
633.995	-14.7	-0.000
634	-14.7	-0.001
634.005	-14.7	-0.000
634.01	-14.7	0.000
634.015	-14.7	-0.000
634.02	-14.7	-0.001
634.025	-14.7	-0.000
634.03	-14.7	-0.000
634.035	-14.7	-0.001
634.04	-14.7	-0.000
634.045	-14.7	0.000
634.05	-14.7	-0.001
634.055	-14.7	0.000
634.06	-14.7	-0.001
634.065	-14.7	-0.000
634.07	-14.7	-0.000
634.075	-14.7	-0.000
634.08	-14.7	-0.000
634.085	-14.7	0.000
634.09	-14.6	0.000
634.095	-14.6	-0.000
634.1	-14.7	-0.001
634.105	-14.7	0.000
634.11	-14.6	-0.000
634.115	-14.6	0.000
634.12	-14.7	-0.001
634.125	-14.7	0.000
634.13	-14.7	-0.001
634.135	-14.7	-0.000
634.14	-14.7	0.000
634.145	-14.7	-0.001
634.15	-14.7	-0.001
634.155	-14.7	0.000
634.16	-14.8	-0.000
634.165	-14.8	0.000
634.17	-14.7	-0.000
634.175	-14.7	-0.001
634.18	-14.7	-0.000
634.185	-14.8	-0.001
634.19	-14.7	-0.000
634.195	-14.7	-0.001
634.2	-14.8	-0.001
634.205	-14.8	-0.001
634.21	-14.7	-0.001
634.215	-14.7	-0.001
634.22	-14.8	0.000
634.225	-14.9	0.000
634.23	-14.9	-0.001
634.235	-14.8	-0.001
634.24	-14.9	-0.000
634.245	-14.9	-0.000
634.25	-14.9	-0.000
634.255	-14.8	-0.001
634.26	-14.9	-0.001
634.265	-14.9	-0.001
634.27	-14.9	0.000
634.275	-14.8	-0.000
634.28	-14.8	-0.001
634.285	-14.9	-0.000
634.29	-14.9	-0.001
634.295	-14.9	-0.001
634.3	-14.9	-0.000
634.305	-14.9	-0.001
634.31	-14.9	-0.001
634.315	-14.8	-0.001
634.32	-14.9	-0.000
634.325	-14.9	-0.000
634.33	-14.9	-0.000
634.335	-14.9	-0.000
634.34	-14.9	0.000
634.345	-14.9	-0.001
634.35	-14.9	0.000
634.355	-14.9	-0.000
634.36	-14.9	-0.001
634.365	-14.9	-0.000
634.37	-14.9	-0.000
634.375	-14.9	-0.000
634.38	-14.9	-0.000
634.385	-14.9	-0.000
634.39	-14.8	-0.000
634.395	-14.9	-0.001
634.4	-14.9	-0.000
634.405	-14.9	-0.000
634.41	-14.8	0.000
634.415	-14.8	-0.001
634.42	-14.8	-0.000
634.425	-14.8	-0.000
634.43	-14.8	0.000
634.435	-14.7	-0.000
634.44	-14.7	-0.000
634.445	-14.7	-0.001
634.45	-14.7	-0.000
634.455	-14.7	-0.000
634.46	-14.7	-0.000
634.465	-14.7	-0.001
634.47	-14.7	0.000
634.475	-14.7	-0.001
634.48	-14.7	0.000
634.485	-14.7	-0.000
634.49	-14.6	-0.001
634.495	-14.6	-0.001
634.5	-14.6	-0.001
634.505	-14.7	-0.001
634.51	-14.7	-0.001
634.515	-14.7	0.000
634.52	-14.7	-0.001
634.525	-14.7	0.000
634.53	-14.6	-0.001
634.535	-14.6	-0.000
634.54	-14.6	-0.001
634.545	-14.6	-0.000
634.55	-14.6	-0.000
634.555	-14.6	-0.000
634.56	-14.6	-0.000
634.565	-14.7	0.000
634.57	-14.6	-0.000
634.575	-14.6	-0.000
634.58	-14.6	0.000
634.585	-14.6	0.000
634.59	-14.6	0.000
634.595	-14.6	-0.000
634.6	-14.6	-0.001
634.605	-14.6	-0.001
634.61	-14.6	0.000
634.615	-14.6	-0.001
634.62	-14.6	-0.000
634.625	-14.6	0.000
634.63	-14.6	-0.000
634.635	-14.6	-0.001
634.64	-14.6	-0.000
634.645	-14.6	-0.000
634.65	-14.6	0.000
634.655	-14.7	-0.001
634.66	-14.7	0.000
634.665	-14.7	-0.001
634.67	-14.6	-0.001
634.675	-14.6	-0.001
634.68	-14.7	-0.001
634.685	-14.7	-0.000
634.69	-14.7	-0.000
634.695	-14.6	-0.000
634.7	-14.7	0.000
634.705	-14.7	-0.000
634.71	-14.7	0.000
634.715	-14.7	0.000
634.72	-14.7	-0.001
634.725	-14.7	-0.000
634.73	-14.7	-0.000
634.735	-14.7	0.000
634.74	-14.7	-0.001
634.745	-14.7	0.000
634.75	-14.7	-0.001
634.755	-14.7	0.000
634.76	-14.6	-0.000
634.765	-14.6	-0.001
634.77	-14.6	0.000
634.775	-14.6	-0.000
634.78	-14.6	-0.001
634.785	-14.6	-0.001
634.79	-14.6	-0.000
634.795	-14.6	0.000
634.8	-14.6	-0.001
634.805	-14.6	-0.001
634.81	-14.6	-0.000
634.815	-14.6	-0.001
634.82	-14.6	-0.001
634.825	-14.6	-0.000
634.83	-14.6	0.000
634.835	-14.5	-0.000
634.84	-14.5	-0.001
634.845	-14.6	-0.001
634.85	-14.5	-0.000
634.855	-14.5	-0.000
634.86	-14.6	-0.000
634.865	-14.6	-0.000
634.87	-14.5	-0.000
634.875	-14.5	-0.001
634.88	-14.5	0.000
634.885	-14.5	-0.001
634.89	-14.5	-0.001
634.895	-14.4	-0.000
634.9	-14.5	-0.000
634.905	-14.5	-0.000
634.91	-14.4	-0.000
634.915	-14.4	-0.001
634.92	-14.4	-0.000
634.925	-14.5	-0.001
634.93	-14.4	-0.001
634.935	-14.4	-0.000
634.94	-14.5	-0.001
634.945	-14.5	-0.000
634.95	-14.4	-0.000
634.955	-14.4	-0.001
634.96	-14.5	-0.001
634.965	-14.5	-0.000
634.97	-14.4	-0.001
634.975	-14.4	-0.001
634.98	-14.5	-0.000
634.985	-14.5	0.000
634.99	-14.4	-0.000
634.995	-14.4	0.000
635	-14.5	-0.001
635.005	-14.5	0.000
635.01	-14.5	-0.000
635.015	-14.5	-0.000
635.02	-14.5	-0.000
635.025	-14.5	-0.001
635.03	-14.5	-0.000
635.035	-14.5	-0.000
635.04	-14.5	-0.000
635.045	-14.5	-0.001
635.05	-14.5	-0.001
635.055	-14.5	-0.000
635.06	-14.5	-0.000
635.065	-14.5	-0.000
635.07	-14.5	-0.000
635.075	-14.5	0.000
635.08	-14.6	-0.000
635.085	-14.6	-0.000
635.09	-14.6	0.000
635.095	-14.7	0.000
635.1	-14.7	0.000
635.105	-14.8	-0.000
635.11	-14.7	-0.001
635.115	-14.7	-0.000
635.12	-14.8	-0.001
635.125	-14.8	-0.000
635.13	-14.8	-0.000
635.135	-14.8	-0.001
635.14	-14.8	-0.000
635.145	-14.9	-0.001
635.15	-14.9	-0.000
635.155	-14.8	-0.001
635.16	-14.8	0.000
635.165	-14.8	-0.001
635.17	-14.8	-0.000
635.175	-14.8	-0.000
635.18	-14.9	-0.000
635.185	-14.9	-0.000
635.19	-14.8	0.000
635.195	-14.8	-0.001
635.2	-14.9	-0.001
635.205	-14.9	-0.000
635.21	-14.8	-0.000
635.215	-14.8	-0.000
635.22	-14.8	0.000
635.225	-14.8	0.000
635.23	-14.8	-0.000
635.235	-14.8	-0.001
635.24	-14.8	-0.000
635.245	-14.8	-0.001
635.25	-14.8	-0.000
635.255	-14.8	0.000
635.26	-14.8	-0.000
635.265	-14.8	-0.000
635.27	-14.7	-0.000
635.275	-14.7	-0.000
635.28	-14.8	0.000
635.285	-14.8	-0.000
635.29	-14.7	-0.001
635.295	-14.7	-0.001
635.3	-14.7	-0.000
635.305	-14.7	-0.000
635.31	-14.6	0.000
635.315	-14.6	-0.000
635.32	-14.6	-0.001
635.325	-14.6	-0.000
635.33	-14.6	-0.000
635.335	-14.5	-0.001
635.34	-14.6	-0.001
635.345	-14.6	-0.001
635.35	-14.5	0.000
635.355	-14.5	-0.000
635.36	-14.5	0.000
635.365	-14.5	-0.000
635.37	-14.5	-0.001
635.375	-14.4	-0.000
635.38	-14.5	-0.001
635.385	-14.4	-0.000
635.39	-14.4	0.000
635.395	-14.4	-0.000
635.4	-14.4	-0.001
635.405	-14.4	-0.000
635.41	-14.4	-0.000
635.415	-14.3	-0.001
635.42	-14.4	-0.001
635.425	-14.4	-0.001
635.43	-14.4	-0.000
635.435	-14.3	0.000
635.44	-14.4	-0.000
635.445	-14.4	-0.001
635.45	-14.3	-0.001
635.455	-14.3	0.000
635.46	-14.3	0.000
635.465	-14.4	-0.001
635.47	-14.4	-0.000
635.475	-14.4	0.000
635.48	-14.4	-0.000
635.485	-14.4	-0.000
635.49	-14.4	-0.001
635.495	-14.4	-0.000
635.5	-14.4	-0.001
635.505	-14.4	-0.001
635.51	-14.4	-0.001
635.515	-14.4	-0.000
635.52	-14.4	-0.000
635.525	-14.5	-0.000
635.53	-14.4	-0.001
635.535	-14.4	-0.000
635.54	-14.4	0.000
635.545	-14.5	-0.000
635.55	-14.5	0.000
635.555	-14.4	-0.001
635.56	-14.5	0.000
635.565	-14.5	0.000
635.57	-14.5	-0.000
635.575	-14.4	-0.000
635.58	-14.5	0.000
635.585	-14.5	-0.000
635.59	-14.5	-0.001
635.595	-14.5	-0.000
635.6	-14.5	-0.001
635.605	-14.5	-0.000
635.61	-14.4	-0.001
635.615	-14.4	-0.000
635.62	-14.5	-0.001
635.625	-14.5	0.000
635.63	-14.5	-0.000
635.635	-14.5	-0.000
635.64	-14.6	-0.001
635.645	-14.5	0.000
635.65	-14.4	-0.000
635.655	-14.4	-0.000
635.66	-14.5	-0.001
635.665	-14.5	0.000
635.67	-14.4	-0.000
635.675	-14.4	-0.000
635.68	-14.4	0.000
635.685	-14.4	-0.000
635.69	-14.4	-0.000
635.695	-14.4	-0.001
635.7	-14.4	0.000
635.705	-14.4	0.000
635.71	-14.3	-0.001
635.715	-14.3	-0.001
635.72	-14.3	0.000
635.725	-14.3	-0.001
635.73	-14.3	-0.001
635.735	-14.3	-0.000
635.74	-14.4	-0.001
635.745	-14.4	-0.000
635.75	-14.4	-0.000
635.755	-16.7	-0.001
635.76	-18.5	-0.001
635.765	-14.3	-0.000
635.77	-12.8	-0.000
635.775	-13.1	0.000
635.78	-13.3	-0.000
635.785	-13.4	0.000
635.79	-13.4	-0.000
635.795	-13.5	-0.000
635.8	-13.7	-0.001
635.805	-13.7	-0.000
635.81	-13.7	-0.001
635.815	-13.7	0.000
635.82	-13.8	-0.000
635.825	-13.8	-0.000
635.83	-13.8	0.000
635.835	-13.9	-0.000
635.84	-14.0	0.000
635.845	-14.0	-0.000
635.85	-13.9	0.001
635.855	-13.9	-0.000
635.86	-14.0	-0.000
635.865	-14.0	-0.001
635.87	-13.9	-0.000
635.875	-13.9	-0.000
635.88	-13.9	-0.000
635.885	-14.0	-0.001
635.89	-14.0	0.000
635.895	-14.0	0.000
635.9	-14.0	-0.001
635.905	-14.0	0.001
635.91	-13.9	-0.000
635.915	-13.9	-0.000
635.92	-13.9	-0.000
635.925	-13.9	-0.000
635.93	-13.8	-0.001
635.935	-13.8	0.000
635.94	-13.8	-0.001
635.945	-13.8	-0.001
635.95	-13.7	0.000
635.955	-13.7	-0.001
635.96	-13.8	-0.001
635.965	-13.7	-0.000
635.97	-13.7	-0.000
635.975	-13.7	-0.001
635.98	-13.7	-0.001
635.985	-13.7	-0.001
635.99	-13.6	0.000
635.995	-13.6	0.000
636	-13.6	-0.000
636.005	-13.6	0.000
636.01	-13.6	0.000
636.015	-13.6	-0.001
636.02	-13.7	-0.001
636.025	-13.7	-0.000
636.03	-13.8	-0.000
636.035	-13.8	0.000
636.04	-13.8	-0.000
636.045	-13.9	0.000
636.05	-13.9	-0.000
636.055	-14.0	-0.000
636.06	-14.1	-0.001
636.065	-14.1	-0.000
636.07	-14.2	-0.000
636.075	-14.2	-0.000
636.08	-14.3	-0.000
636.085	-14.4	-0.000
636.09	-14.5	-0.000
636.095	-14.5	-0.001
636.1	-14.6	-0.000
636.105	-14.7	-0.000
636.11	-14.7	-0.000
636.115	-14.8	-0.001
636.12	-14.9	-0.001
636.125	-15.0	0.000
636.13	-15.0	-0.000
636.135	-15.0	-0.000
636.14	-15.1	-0.001
636.145	-15.2	0.000
636.15	-15.2	0.000
636.155	-15.2	-0.001
636.16	-15.3	0.000
636.165	-15.4	-0.001
636.17	-15.3	0.000
636.175	-15.4	-0.000
636.18	-15.5	-0.000
636.185	-15.5	-0.000
636.19	-15.5	-0.000
636.195	-15.5	-0.000
636.2	-15.6	-0.001
636.205	-15.6	0.000
636.21	-15.5	-0.001
636.215	-15.5	0.000
636.22	-15.6	-0.000
636.225	-15.6	-0.000
636.23	-15.6	-0.001
636.235	-15.6	-0.001
636.24	-15.6	0.000
636.245	-15.7	0.000
636.25	-15.7	-0.000
636.255	-15.7	-0.000
636.26	-15.7	-0.001
636.265	-15.7	0.000
636.27	-15.6	-0.000
636.275	-15.6	-0.001
636.28	-15.7	-0.000
636.285	-15.6	-0.000
636.29	-15.6	-0.000
636.295	-15.6	-0.000
636.3	-15.6	-0.001
636.305	-15.6	-0.000
636.31	-15.5	-0.001
636.315	-15.5	0.000
636.32	-15.5	-0.001
636.325	-15.4	0.000
636.33	-15.4	-0.000
636.335	-15.3	0.000
636.34	-15.3	-0.001
636.345	-15.3	-0.000
636.35	-15.3	-0.000
636.355	-15.3	-0.000
636.36	-15.3	-0.000
636.365	-15.2	0.000
636.37	-15.1	-0.000
636.375	-15.1	-0.000
636.38	-15.1	-0.000
636.385	-15.1	-0.000
636.39	-15.1	0.000
636.395	-15.0	0.000
636.4	-15.0	0.000
636.405	-15.0	-0.000
636.41	-15.0	-0.001
636.415	-15.1	-0.001
636.42	-15.0	-0.001
636.425	-15.0	-0.000
636.43	-14.9	-0.001
636.435	-14.8	-0.000
636.44	-14.8	0.000
636.445	-14.8	-0.001
636.45	-14.7	-0.000
636.455	-14.7	-0.000
636.46	-14.7	-0.000
636.465	-14.7	0.000
636.47	-14.6	-0.000
636.475	-14.6	-0.000
636.48	-14.6	-0.000
636.485	-14.6	0.000
636.49	-14.5	0.000
636.495	-14.5	-0.000
636.5	-14.5	0.000
636.505	-14.5	0.000
636.51	-14.5	-0.000
636.515	-14.4	0.000
636.52	-14.4	-0.000
636.525	-14.4	-0.001
636.53	-14.4	-0.001
636.535	-14.3	0.000
636.54	-14.3	-0.000
636.545	-14.3	0.000
636.55	-14.3	-0.001
636.555	-14.3	-0.001
636.56	-14.4	0.000
636.565	-14.4	-0.001
636.57	-14.3	-0.001
636.575	-14.3	-0.000
636.58	-14.3	-0.001
636.585	-14.3	0.000
636.59	-14.3	-0.001
636.595	-14.2	-0.000
636.6	-14.3	0.000
636.605	-14.3	-0.000
636.61	-14.3	-0.001
636.615	-14.3	-0.000
636.62	-14.4	0.000
636.625	-14.3	-0.001
636.63	-14.3	0.000
636.635	-14.2	-0.000
636.64	-14.3	-0.000
636.645	-14.3	-0.001
636.65	-14.2	-0.001
636.655	-14.3	-0.001
636.66	-14.3	-0.000
636.665	-14.3	-0.000
636.67	-14.3	0.000
636.675	-14.3	-0.001
636.68	-14.4	-0.001
636.685	-14.3	-0.001
636.69	-14.3	-0.000
636.695	-14.3	0.000
636.7	-14.3	-0.000
636.705	-14.3	-0.000
636.71	-14.3	-0.001
636.715	-14.3	-0.000
636.72	-14.3	0.000
636.725	-14.3	-0.001
636.73	-14.3	-0.001
636.735	-14.3	-0.001
636.74	-14.3	-0.000
636.745	-14.3	-0.000
636.75	-14.2	-0.001
636.755	-14.2	-0.000
636.76	-14.3	0.000
636.765	-14.3	-0.001
636.77	-14.3	0.000
636.775	-14.3	-0.001
636.78	-14.3	-0.001
636.785	-14.3	-0.000
636.79	-14.3	-0.000
636.795	-14.3	0.000
636.8	-14.3	0.000
636.805	-14.4	-0.001
636.81	-14.3	0.000
636.815	-14.3	-0.001
636.82	-14.4	-0.000
636.825	-14.4	0.000
636.83	-14.3	-0.000
636.835	-14.3	-0.001
636.84	-14.4	0.000
636.845	-14.4	-0.000
636.85	-14.4	-0.001
636.855	-14.4	-0.000
636.86	-14.4	-0.000
636.865	-14.4	0.000
636.87	-14.3	-0.000
636.875	-14.3	-0.001
636.88	-14.3	-0.000
636.885	-14.3	-0.001
636.89	-14.3	-0.001
636.895	-14.3	-0.000
636.9	-14.4	-0.001
636.905	-14.4	-0.001
636.91	-14.3	0.000
636.915	-14.3	0.000
636.92	-14.3	-0.001
636.925	-14.3	-0.000
636.93	-14.3	-0.000
636.935	-14.3	0.000
636.94	-14.3	-0.001
636.945	-14.3	-0.000
636.95	-14.3	0.000
636.955	-14.3	-0.001
636.96	-14.3	-0.000
636.965	-14.3	-0.001
636.97	-14.2	0.000
636.975	-14.2	0.000
636.98	-14.3	-0.000
636.985	-14.3	-0.000
636.99	-14.2	0.000
636.995	-14.2	0.000
637	-14.2	-0.001
637.005	-14.2	0.000
637.01	-14.2	-0.001
637.015	-14.2	0.000
637.02	-14.2	0.000
637.025	-14.2	-0.000
637.03	-14.1	0.000
637.035	-14.1	-0.001
637.04	-14.1	-0.000
637.045	-14.1	-0.001
637.05	-14.0	-0.000
637.055	-14.0	-0.000
637.06	-14.1	-0.000
637.065	-14.0	-0.000
637.07	-14.0	0.000
637.075	-14.0	-0.001
637.08	-14.0	0.000
637.085	-13.9	-0.000
637.09	-13.9	-0.000
637.095	-13.9	-0.001
637.1	-13.9	-0.001
637.105	-13.9	-0.000
637.11	-13.9	-0.000
637.115	-13.9	0.000
637.12	-13.9	-0.001
637.125	-13.9	-0.000
637.13	-13.9	-0.001
637.135	-13.8	0.000
637.14	-13.8	0.000
637.145	-13.8	0.000
637.15	-13.8	-0.000
637.155	-13.8	0.000
637.16	-13.8	0.000
637.165	-13.8	-0.000
637.17	-13.8	-0.001
637.175	-13.8	0.000
637.18	-13.8	-0.001
637.185	-13.7	0.000
637.19	-13.7	-0.000
637.195	-13.7	-0.000
637.2	-13.8	-0.001
637.205	-13.8	-0.000
637.21	-13.7	-0.000
637.215	-13.7	-0.001
637.22	-13.7	-0.001
637.225	-13.7	-0.000
637.23	-13.7	-0.000
637.235	-13.7	0.000
637.24	-13.7	0.000
637.245	-13.7	-0.000
637.25	-13.6	-0.000
637.255	-13.6	-0.001
637.26	-13.7	-0.000
637.265	-13.7	-0.001
637.27	-13.7	0.000
637.275	-13.7	0.000
637.28	-13.7	-0.001
637.285	-13.7	0.000
637.29	-13.7	-0.000
637.295	-13.7	-0.001
637.3	-13.7	0.000
637.305	-13.7	-0.001
637.31	-13.7	-0.001
637.315	-13.7	0.000
637.32	-13.7	-0.001
637.325	-13.7	-0.000
637.33	-13.7	0.000
637.335	-13.7	-0.001
637.34	-13.7	-0.000
637.345	-13.7	-0.001
637.35	-13.6	-0.001
637.355	-13.7	-0.000
637.36	-13.7	-0.000
637.365	-13.7	0.000
637.37	-13.7	-0.000
637.375	-13.7	-0.001
637.38	-13.8	0.000
637.385	-13.8	0.000
637.39	-13.8	-0.001
637.395	-13.7	-0.000
637.4	-13.8	0.000
637.405	-13.8	-0.000
637.41	-13.7	-0.000
637.415	-13.8	-0.001
637.42	-13.8	0.000
637.425	-13.8	-0.001
637.43	-13.8	-0.001
637.435	-13.8	-0.000
637.44	-13.8	-0.000
637.445	-13.8	-0.000
637.45	-13.8	0.000
637.455	-13.8	0.000
637.46	-13.9	0.000
637.465	-13.9	-0.000
637.47	-13.9	-0.000
637.475	-13.9	-0.001
637.48	-13.9	-0.000
637.485	-13.9	-0.000
637.49	-13.9	-0.001
637.495	-13.9	-0.001
637.5	-14.0	-0.000
637.505	-13.9	-0.000
637.51	-13.9	-0.000
637.515	-13.9	0.000
637.52	-14.0	-0.001
637.525	-13.9	-0.000
637.53	-13.9	0.000
637.535	-14.0	-0.000
637.54	-14.0	0.000
637.545	-14.0	0.000
637.55	-14.0	-0.001
637.555	-14.0	-0.000
637.56	-14.1	0.000
637.565	-14.0	-0.001
637.57	-14.0	-0.000
637.575	-14.0	-0.001
637.58	-14.0	0.000
637.585	-14.0	-0.000
637.59	-14.0	-0.000
637.595	-14.1	-0.001
637.6	-14.1	-0.000
637.605	-14.0	0.000
637.61	-14.0	-0.001
637.615	-14.0	-0.000
637.62	-14.0	0.000
637.625	-14.0	-0.000
637.63	-14.0	-0.000
637.635	-13.9	-0.001
637.64	-13.9	-0.000
637.645	-13.9	-0.001
637.65	-13.9	0.000
637.655	-14.0	-0.001
637.66	-14.0	-0.000
637.665	-13.9	-0.000
637.67	-13.9	-0.001
637.675	-13.9	0.000
637.68	-14.0	0.000
637.685	-13.9	-0.001
637.69	-13.9	-0.001
637.695	-14.0	-0.001
637.7	-14.0	0.000
637.705	-14.0	-0.001
637.71	-13.9	-0.001
637.715	-14.0	0.000
637.72	-14.0	-0.001
637.725	-14.0	-0.000
637.73	-13.9	-0.000
637.735	-13.9	-0.001
637.74	-13.9	-0.000
637.745	-13.9	0.000
637.75	-13.9	0.000
637.755	-13.9	-0.001
637.76	-13.9	0.000
637.765	-13.9	-0.000
637.77	-13.8	0.000
637.775	-13.8	-0.001
637.78	-13.8	-0.001
637.785	-13.8	-0.000
637.79	-13.8	-0.001
637.795	-13.8	-0.001
637.8	-13.8	-0.001
637.805	-13.8	0.000
637.81	-13.7	-0.001
637.815	-13.8	-0.001
637.82	-13.7	0.000
637.825	-13.7	-0.000
637.83	-13.6	-0.001
637.835	-13.6	-0.001
637.84	-13.6	0.000
637.845	-13.7	-0.001
637.85	-13.6	-0.000
637.855	-13.6	-0.001
637.86	-13.6	0.000
637.865	-13.6	-0.000
637.87	-13.5	-0.000
637.875	-13.5	-0.001
637.88	-13.6	-0.000
637.885	-13.6	0.000
637.89	-13.5	-0.000
637.895	-13.5	-0.001
637.9	-13.6	-0.001
637.905	-13.6	-0.001
637.91	-13.5	-0.001
637.915	-13.6	0.000
637.92	-13.6	-0.000
637.925	-13.6	0.000
637.93	-13.6	-0.001
637.935	-13.6	-0.000
637.94	-13.6	-0.000
637.945	-13.6	0.000
637.95	-13.6	-0.001
637.955	-13.6	-0.000
637.96	-13.6	-0.001
637.965	-13.6	-0.000
637.97	-13.6	-0.001
637.975	-13.6	-0.000
637.98	-13.6	0.000
637.985	-13.6	0.000
637.99	-13.5	0.000
637.995	-13.5	-0.000
638	-13.6	0.000
638.005	-13.6	0.000
638.01	-13.6	-0.000
638.015	-13.6	0.000
638.02	-13.7	0.000
638.025	-13.6	-0.000
638.03	-13.6	-0.000
638.035	-13.5	-0.000
638.04	-13.6	0.000
638.045	-13.6	0.000
638.05	-13.6	-0.000
638.055	-13.6	-0.001
638.06	-13.6	-0.000
638.065	-13.6	-0.000
638.07	-13.6	-0.000
638.075	-13.6	-0.000
638.08	-13.6	-0.001
638.085	-13.6	0.000
638.09	-13.6	-0.001
638.095	-13.6	0.000
638.1	-13.6	-0.001
638.105	-13.6	0.000
638.11	-13.6	-0.001
638.115	-13.6	-0.001
638.12	-13.6	-0.000
638.125	-13.6	-0.001
638.13	-13.6	-0.000
638.135	-13.6	-0.000
638.14	-13.6	0.000
638.145	-13.6	-0.000
638.15	-13.6	-0.000
638.155	-13.6	0.000
638.16	-13.6	-0.000
638.165	-13.6	0.000
638.17	-13.6	-0.001
638.175	-13.6	-0.000
638.18	-13.6	0.000
638.185	-13.6	-0.001
638.19	-13.6	-0.001
638.195	-13.6	-0.000
638.2	-13.6	-0.000
638.205	-13.5	0.000
638.21	-13.5	-0.000
638.215	-13.6	0.000
638.22	-13.6	-0.000
638.225	-13.6	-0.001
638.23	-13.6	-0.001
638.235	-13.6	-0.000
638.24	-13.6	-0.000
638.245	-13.6	-0.000
638.25	-13.6	-0.001
638.255	-13.6	-0.000
638.26	-13.6	-0.001
638.265	-13.6	-0.001
638.27	-13.6	-0.001
638.275	-13.6	-0.000
638.28	-13.7	-0.001
638.285	-13.7	-0.000
638.29	-13.7	0.000
638.295	-13.7	-0.001
638.3	-13.7	-0.000
638.305	-13.7	-0.001
638.31	-13.7	0.000
638.315	-13.8	-0.001
638.32	-13.8	0.000
638.325	-13.7	-0.001
638.33	-13.7	-0.001
638.335	-13.8	-0.001
638.34	-13.8	0.000
638.345	-13.8	-0.000
638.35	-13.8	-0.001
638.355	-13.8	-0.001
638.36	-13.8	-0.001
638.365	-13.8	0.000
638.37	-13.8	-0.000
638.375	-13.8	-0.000
638.38	-13.9	-0.001
638.385	-13.8	-0.001
638.39	-13.8	-0.000
638.395	-13.9	0.000
638.4	-13.9	-0.000
638.405	-13.9	-0.000
638.41	-13.9	-0.000
638.415	-13.9	0.000
638.42	-13.9	0.000
638.425	-13.9	-0.000
638.43	-13.8	-0.000
638.435	-13.9	-0.000
638.44	-13.9	0.000
638.445	-13.9	0.000
638.45	-13.8	-0.001
638.455	-13.8	-0.001
638.46	-13.9	-0.000
638.465	-15.5	-0.001
638.47	-18.4	-0.000
638.475	-14.4	-0.000
638.48	-12.4	-0.000
638.485	-12.6	-0.001
638.49	-12.8	-0.000
638.495	-12.9	-0.001
638.5	-13.0	0.000
638.505	-13.0	0.000
638.51	-13.0	-0.000
638.515	-13.1	-0.001
638.52	-13.1	-0.000
638.525	-13.1	-0.001
638.53	-13.2	0.000
638.535	-13.3	-0.000
638.54	-13.3	-0.000
638.545	-13.3	-0.001
638.55	-13.3	-0.000
638.555	-13.3	-0.001
638.56	-13.3	-0.000
638.565	-13.3	-0.000
638.57	-13.3	-0.000
638.575	-13.3	-0.000
638.58	-13.3	-0.000
638.585	-13.3	-0.000
638.59	-13.3	0.000
638.595	-13.3	-0.001
638.6	-13.3	-0.000
638.605	-13.3	-0.000
638.61	-13.3	-0.000
638.615	-13.3	-0.001
638.62	-13.2	-0.000
638.625	-13.2	-0.000
638.63	-13.2	-0.000
638.635	-13.1	-0.000
638.64	-13.1	-0.001
638.645	-13.1	-0.000
638.65	-13.1	-0.000
638.655	-13.0	-0.000
638.66	-13.0	-0.000
638.665	-13.0	-0.000
638.67	-12.9	-0.001
638.675	-12.9	-0.000
638.68	-12.9	-0.000
638.685	-12.8	-0.001
638.69	-12.8	0.000
638.695	-12.8	0.000
638.7	-12.8	-0.000
638.705	-12.8	0.000
638.71	-12.8	-0.001
638.715	-12.8	-0.000
638.72	-12.8	-0.001
638.725	-12.8	-0.001
638.73	-12.8	-0.000
638.735	-12.8	-0.000
638.74	-12.8	0.000
638.745	-12.8	-0.001
638.75	-12.9	0.000
638.755	-13.0	0.000
638.76	-13.0	-0.000
638.765	-13.0	-0.000
638.77	-13.1	-0.001
638.775	-13.1	-0.000
638.78	-13.2	-0.001
638.785	-13.2	-0.001
638.79	-13.3	-0.000
638.795	-13.3	0.000
638.8	-13.4	-0.001
638.805	-13.5	-0.001
638.81	-13.5	0.000
638.815	-13.6	0.000
638.82	-13.7	-0.000
638.825	-13.7	-0.000
638.83	-13.8	-0.001
638.835	-13.9	-0.000
638.84	-13.9	0.000
638.845	-14.0	-0.001
638.85	-14.0	-0.000
638.855	-14.0	-0.001
638.86	-14.1	-0.001
638.865	-14.2	-0.000
638.87	-14.3	0.000
638.875	-14.3	0.000
638.88	-14.4	-0.000
638.885	-14.4	-0.000
638.89	-14.4	0.000
638.895	-14.4	-0.000
638.9	-14.5	0.000
638.905	-14.5	-0.001
638.91	-14.5	-0.000
638.915	-14.5	0.000
638.92	-14.6	-0.000
638.925	-14.6	-0.001
638.93	-14.6	0.000
638.935	-14.6	0.000
638.94	-14.6	-0.000
638.945	-14.6	0.000
638.95	-14.6	-0.000
638.955	-14.7	0.000
638.96	-14.7	-0.001
638.965	-14.7	-0.000
638.97	-14.7	-0.000
638.975	-14.7	-0.001
638.98	-14.7	-0.000
638.985	-14.7	0.000
638.99	-14.7	-0.000
638.995	-14.7	0.000
639	-14.7	-0.000
639.005	-14.7	-0.001
639.01	-14.6	-0.001
639.015	-14.7	-0.000
639.02	-14.7	-0.000
639.025	-14.7	-0.001
639.03	-14.7	0.000
639.035	-14.6	-0.000
639.04	-14.6	-0.001
639.045	-14.6	0.000
639.05	-14.6	-0.001
639.055	-14.6	-0.000
639.06	-14.6	0.000
639.065	-14.5	-0.000
639.07	-14.5	-0.000
639.075	-14.5	-0.000
639.08	-14.5	-0.001
639.085	-14.5	-0.000
639.09	-14.4	-0.000
639.095	-14.4	0.000
639.1	-14.4	-0.001
639.105	-14.3	0.000
639.11	-14.3	0.000
639.115	-14.3	-0.000
639.12	-14.3	0.000
639.125	-14.3	-0.000
639.13	-14.3	-0.000
639.135	-14.3	-0.000
639.14	-14.2	-0.000
639.145	-14.3	-0.000
639.15	-14.3	-0.000
639.155	-14.2	0.000
639.16	-14.2	-0.000
639.165	-14.1	-0.001
639.17	-14.1	-0.001
639.175	-14.1	-0.000
639.18	-14.1	-0.000
639.185	-14.0	-0.000
639.19	-14.0	0.000
639.195	-14.0	-0.000
639.2	-13.9	0.000
639.205	-13.9	-0.000
639.21	-13.9	0.000
639.215	-13.9	-0.000
639.22	-13.9	-0.000
639.225	-13.8	0.000
639.23	-13.8	-0.001
639.235	-13.8	-0.000
639.24	-13.7	-0.000
639.245	-13.7	-0.001
639.25	-13.7	-0.001
639.255	-13.7	0.000
639.26	-13.7	-0.000
639.265	-13.6	-0.001
639.27	-13.5	0.000
639.275	-13.5	-0.001
639.28	-13.5	-0.001
639.285	-13.6	-0.000
639.29	-13.6	-0.000
639.295	-13.6	-0.001
639.3	-13.5	-0.001
639.305	-13.5	-0.001
639.31	-13.5	-0.000
639.315	-13.5	-0.000
639.32	-13.4	-0.000
639.325	-13.4	-0.000
639.33	-13.4	0.000
639.335	-13.4	-0.000
639.34	-13.4	0.000
639.345	-13.3	0.000
639.35	-13.3	-0.001
639.355	-13.3	0.000
639.36	-13.3	-0.001
639.365	-13.2	-0.000
639.37	-13.2	-0.000
639.375	-13.2	-0.001
639.38	-13.2	-0.001
639.385	-13.2	-0.001
639.39	-13.2	-0.001
639.395	-13.3	-0.000
639.4	-13.3	0.000
639.405	-13.3	-0.000
639.41	-13.3	-0.001
639.415	-13.3	0.000
639.42	-13.2	0.000
639.425	-13.2	-0.000
639.43	-13.1	-0.000
639.435	-13.1	-0.001
639.44	-13.2	-0.001
639.445	-13.2	-0.000
639.45	-13.2	-0.000
639.455	-13.3	0.000
639.46	-13.3	-0.001
639.465	-13.3	0.000
639.47	-13.2	-0.000
639.475	-13.2	-0.001
639.48	-13.2	-0.000
639.485	-13.2	0.000
639.49	-13.2	-0.001
639.495	-13.3	0.000
639.5	-13.4	-0.001
639.505	-13.4	0.000
639.51	-13.3	0.000
639.515	-13.3	-0.000
639.52	-13.3	-0.000
639.525	-13.3	-0.001
639.53	-13.2	-0.000
639.535	-13.3	-0.000
639.54	-13.3	-0.001
639.545	-13.3	-0.001
639.55	-13.4	-0.000
639.555	-13.4	-0.001
639.56	-13.4	-0.001
639.565	-13.4	0.000
639.57	-13.4	-0.001
639.575	-13.4	-0.000
639.58	-13.4	-0.001
639.585	-13.4	-0.000
639.59	-13.4	-0.001
639.595	-13.4	0.000
639.6	-13.4	0.000
639.605	-13.4	-0.000
639.61	-13.4	-0.000
639.615	-13.5	-0.000
639.62	-13.5	-0.001
639.625	-13.5	-0.001
639.63	-13.5	0.000
639.635	-13.5	-0.001
639.64	-13.5	0.000
639.645	-13.5	-0.000
639.65	-13.5	-0.001
639.655	-13.5	0.000
639.66	-13.5	-0.001
639.665	-13.5	-0.001
639.67	-13.5	-0.000
639.675	-13.5	-0.000
639.68	-13.5	-0.000
639.685	-13.4	-0.000
639.69	-13.3	-0.000
639.695	-13.4	0.000
639.7	-13.4	-0.000
639.705	-13.4	0.000
639.71	-13.4	-0.000
639.715	-13.4	0.000
639.72	-13.4	-0.000
639.725	-13.3	0.000
639.73	-13.3	0.000
639.735	-13.3	-0.001
639.74	-13.3	0.000
639.745	-13.3	-0.000
639.75	-13.3	-0.000
639.755	-13.3	-0.001
639.76	-13.3	-0.000
639.765	-13.3	-0.001
639.77	-13.3	-0.000
639.775	-13.3	-0.000
639.78	-13.3	-0.000
639.785	-13.3	0.001
639.79	-13.2	0.000
639.795	-13.3	-0.000
639.8	-13.3	-0.001
639.805	-13.3	-0.000
639.81	-13.3	-0.001
639.815	-13.3	-0.001
639.82	-13.3	-0.001
639.825	-13.2	-0.001
639.83	-13.3	-0.000
639.835	-13.3	-0.000
639.84	-13.3	-0.001
639.845	-13.2	-0.001
639.85	-13.2	-0.001
639.855	-13.2	0.000
639.86	-13.2	-0.000
639.865	-13.2	-0.000
639.87	-13.2	-0.000
639.875	-13.3	-0.000
639.88	-13.3	0.000
639.885	-13.3	-0.001
639.89	-13.3	-0.000
639.895	-13.4	0.000
639.9	-13.4	-0.000
639.905	-13.3	-0.001
639.91	-13.3	-0.001
639.915	-13.3	0.000
639.92	-13.3	-0.001
639.925	-13.3	-0.000
639.93	-13.2	0.000
639.935	-13.3	-0.000
639.94	-13.3	0.000
639.945	-13.3	-0.001
639.95	-13.2	-0.000
639.955	-13.3	-0.000
639.96	-13.3	0.000
639.965	-13.3	-0.001
639.97	-13.3	0.000
639.975	-13.3	-0.001
639.98	-13.3	0.000
639.985	-13.2	-0.001
639.99	-13.2	-0.000
639.995	-13.2	-0.001
640	-13.2	-0.001
640.005	-13.2	-0.000
640.01	-13.1	-0.001
640.015	-13.1	0.000
640.02	-13.1	0.000
640.025	-13.1	-0.001
640.03	-13.1	0.000
640.035	-13.1	-0.000
640.04	-13.1	-0.000
640.045	-13.1	-0.001
640.05	-13.1	0.000
640.055	-13.1	0.000
640.06	-13.1	-0.001
640.065	-13.1	-0.001
640.07	-13.1	-0.000
640.075	-13.1	-0.001
640.08	-13.2	-0.000
640.085	-13.1	-0.000
640.09	-13.1	-0.001
640.095	-13.2	-0.000
640.1	-13.2	0.000
640.105	-13.1	-0.000
640.11	-13.1	0.000
640.115	-13.0	0.000
640.12	-13.1	-0.000
640.125	-13.1	-0.000
640.13	-13.1	-0.000
640.135	-13.2	-0.000
640.14	-13.2	-0.000
640.145	-13.1	0.000
640.15	-13.1	-0.001
640.155	-13.1	-0.000
640.16	-13.1	-0.000
640.165	-13.1	0.000
640.17	-13.1	-0.000
640.175	-13.1	0.000
640.18	-13.1	-0.000
640.185	-13.1	-0.000
640.19	-13.1	0.000
640.195	-13.1	-0.000
640.2	-13.2	0.000
640.205	-13.1	-0.000
640.21	-13.1	0.000
640.215	-13.1	-0.000
640.22	-13.0	-0.000
640.225	-13.0	0.000
640.23	-13.1	-0.000
640.235	-13.2	-0.000
640.24	-13.2	-0.000
640.245	-13.2	-0.001
640.25	-13.2	0.000
640.255	-13.2	-0.000
640.26	-13.2	-0.000
640.265	-13.1	-0.000
640.27	-13.1	0.000
640.275	-13.1	-0.001
640.28	-13.1	0.000
640.285	-13.1	-0.000
640.29	-13.1	-0.001
640.295	-13.1	0.000
640.3	-13.1	0.000
640.305	-13.1	-0.000
640.31	-13.0	-0.000
640.315	-13.1	0.000
640.32	-13.1	0.000
640.325	-13.1	-0.001
640.33	-13.0	0.000
640.335	-13.0	-0.000
640.34	-13.0	-0.000
640.345	-13.1	-0.000
640.35	-13.1	-0.001
640.355	-13.1	-0.001
640.36	-13.2	-0.001
640.365	-13.2	-0.001
640.37	-13.2	-0.001
640.375	-13.2	0.000
640.38	-13.2	-0.001
640.385	-13.2	-0.001
640.39	-13.2	0.000
640.395	-13.3	-0.001
640.4	-13.3	0.000
640.405	-13.3	0.000
640.41	-13.3	-0.000
640.415	-13.3	-0.000
640.42	-13.3	-0.000
640.425	-13.3	-0.000
640.43	-13.4	-0.001
640.435	-13.4	0.000
640.44	-13.4	-0.000
640.445	-13.4	0.000
640.45	-13.4	-0.001
640.455	-13.5	0.000
640.46	-13.5	-0.000
640.465	-13.4	0.000
640.47	-13.4	-0.001
640.475	-13.5	0.000
640.48	-13.5	-0.001
640.485	-13.5	0.000
640.49	-13.5	-0.000
640.495	-13.5	-0.001
640.5	-13.5	-0.000
640.505	-13.5	-0.000
640.51	-13.5	-0.000
640.515	-13.5	0.000
640.52	-13.5	-0.000
640.525	-13.5	-0.001
640.53	-13.5	0.000
640.535	-13.5	0.000
640.54	-13.5	0.000
640.545	-13.5	0.000
640.55	-13.5	-0.001
640.555	-13.5	0.000
640.56	-13.5	0.000
640.565	-13.5	-0.001
640.57	-13.5	-0.000
640.575	-13.5	-0.000
640.58	-13.5	-0.001
640.585	-13.5	-0.000
640.59	-13.4	-0.000
640.595	-13.4	0.000
640.6	-13.4	-0.000
640.605	-13.4	-0.000
640.61	-13.3	-0.001
640.615	-13.4	-0.000
640.62	-13.4	-0.001
640.625	-13.4	-0.000
640.63	-13.4	-0.001
640.635	-13.4	0.000
640.64	-13.4	-0.000
640.645	-13.3	-0.000
640.65	-13.4	-0.001
640.655	-13.4	-0.000
640.66	-13.4	-0.001
640.665	-13.4	-0.001
640.67	-13.4	-0.000
640.675	-13.4	-0.001
640.68	-13.4	-0.001
640.685	-13.4	0.000
640.69	-13.3	-0.001
640.695	-13.3	0.000
640.7	-13.4	-0.001
640.705	-13.4	0.000
640.71	-13.4	-0.001
640.715	-13.4	-0.001
640.72	-13.4	-0.001
640.725	-13.4	0.000
640.73	-13.4	-0.000
640.735	-13.4	-0.001
640.74	-13.4	-0.000
640.745	-13.4	-0.000
640.75	-13.4	-0.000
640.755	-13.4	-0.000
640.76	-13.4	0.000
640.765	-13.4	-0.001
640.77	-13.4	-0.000
640.775	-13.4	-0.001
640.78	-13.4	-0.000
640.785	-13.4	-0.000
640.79	-13.4	-0.000
640.795	-13.4	-0.001
640.8	-13.3	-0.000
640.805	-13.3	-0.000
640.81	-13.3	0.000
640.815	-13.4	-0.000
640.82	-13.4	0.000
640.825	-13.4	0.000
640.83	-13.3	0.000
640.835	-13.4	-0.000
640.84	-13.4	0.000
640.845	-13.3	-0.000
640.85	-13.3	-0.001
640.855	-13.3	-0.001
640.86	-13.3	-0.000
640.865	-13.3	-0.001
640.87	-13.3	-0.001
640.875	-13.3	-0.000
640.88	-13.4	-0.001
640.885	-13.3	0.000
640.89	-13.3	-0.000
640.895	-13.4	-0.000
640.9	-13.4	-0.001
640.905	-13.4	-0.000
640.91	-13.4	-0.001
640.915	-13.4	-0.001
640.92	-13.4	-0.000
640.925	-13.4	-0.000
640.93	-13.4	-0.000
640.935	-13.4	0.000
640.94	-13.4	-0.001
640.945	-13.4	-0.000
640.95	-13.4	0.000
640.955	-13.4	-0.000
640.96	-13.4	0.000
640.965	-13.3	0.000
640.97	-13.3	-0.001
640.975	-13.3	-0.000
640.98	-13.4	-0.000
640.985	-13.3	-0.000
640.99	-13.3	0.000
640.995	-13.3	0.000
641	-13.3	-0.000
641.005	-13.3	-0.001
641.01	-13.3	0.000
641.015	-13.3	-0.000
641.02	-13.3	-0.001
641.025	-13.3	-0.001
641.03	-13.3	0.000
641.035	-13.3	-0.000
641.04	-13.3	0.000
641.045	-13.3	0.000
641.05	-13.3	0.000
641.055	-13.2	-0.001
641.06	-13.2	0.000
641.065	-13.2	-0.001
641.07	-13.2	-0.000
641.075	-13.3	-0.001
641.08	-13.2	-0.001
641.085	-13.2	-0.001
641.09	-13.2	-0.000
641.095	-13.2	0.000
641.1	-13.2	-0.000
641.105	-13.1	0.000
641.11	-13.1	0.000
641.115	-13.1	-0.000
641.12	-13.2	-0.000
641.125	-13.1	-0.000
641.13	-13.1	-0.001
641.135	-13.1	-0.001
641.14	-13.1	0.000
641.145	-13.1	-0.000
641.15	-13.1	-0.001
641.155	-13.1	-0.000
641.16	-14.4	-0.000
641.165	-17.7	-0.000
641.17	-14.1	0.000
641.175	-11.8	0.000
641.18	-11.9	-0.000
641.185	-12.2	-0.000
641.19	-12.2	0.000
641.195	-12.3	-0.000
641.2	-12.3	-0.000
641.205	-12.3	-0.000
641.21	-12.4	-0.000
641.215	-12.5	-0.000
641.22	-12.5	0.000
641.225	-12.5	-0.001
641.23	-12.5	0.000
641.235	-12.6	0.000
641.24	-12.6	-0.001
641.245	-12.7	-0.001
641.25	-12.7	-0.000
641.255	-12.7	0.000
641.26	-12.7	-0.001
641.265	-12.7	-0.001
641.27	-12.7	-0.000
641.275	-12.8	-0.001
641.28	-12.8	-0.000
641.285	-12.8	-0.000
641.29	-12.8	-0.001
641.295	-12.8	0.000
641.3	-12.8	0.000
641.305	-12.8	-0.000
641.31	-12.8	-0.000
641.315	-12.9	-0.000
641.32	-12.8	0.000
641.325	-12.8	-0.000
641.33	-12.8	0.000
641.335	-12.8	-0.000
641.34	-12.8	0.000
641.345	-12.8	-0.000
641.35	-12.8	-0.000
641.355	-12.8	0.000
641.36	-12.7	0.000
641.365	-12.7	-0.001
641.37	-12.7	-0.000
641.375	-12.7	-0.001
641.38	-12.6	-0.000
641.385	-12.6	0.000
641.39	-12.6	0.000
641.395	-12.6	-0.001
641.4	-12.6	0.000
641.405	-12.5	0.000
641.41	-12.5	-0.000
641.415	-12.5	-0.000
641.42	-12.5	-0.000
641.425	-12.5	-0.001
641.43	-12.5	0.000
641.435	-12.6	0.000
641.44	-12.6	-0.000
641.445	-12.5	-0.001
641.45	-12.6	0.000
641.455	-12.6	-0.000
641.46	-12.7	-0.000
641.465	-12.7	-0.001
641.47	-12.7	-0.000
641.475	-12.7	0.000
641.48	-12.8	0.000
641.485	-12.8	0.000
641.49	-12.9	0.000
641.495	-13.0	0.000
641.5	-13.0	-0.000
641.505	-13.1	-0.000
641.51	-13.1	0.000
641.515	-13.2	0.000
641.52	-13.2	-0.000
641.525	-13.3	0.000
641.53	-13.3	-0.000
641.535	-13.4	-0.000
641.54	-13.5	-0.001
641.545	-13.5	-0.001
641.55	-13.6	-0.000
641.555	-13.6	0.000
641.56	-13.7	-0.000
641.565	-13.7	-0.001
641.57	-13.7	-0.000
641.575	-13.7	-0.000
641.58	-13.8	-0.001
641.585	-13.8	-0.000
641.59	-13.9	-0.001
641.595	-14.0	0.000
641.6	-14.0	0.000
641.605	-14.1	-0.000
641.61	-14.1	-0.000
641.615	-14.2	-0.000
641.62	-14.2	-0.000
641.625	-14.2	-0.000
641.63	-14.2	0.000
641.635	-14.2	-0.000
641.64	-14.2	-0.001
641.645	-14.2	-0.000
641.65	-14.2	0.000
641.655	-14.2	-0.001
641.66	-14.2	-0.000
641.665	-14.2	-0.001
641.67	-14.2	0.000
641.675	-14.2	0.000
641.68	-14.1	0.000
641.685	-14.1	0.000
641.69	-14.1	-0.000
641.695	-14.1	0.000
641.7	-14.2	0.000
641.705	-14.1	-0.000
641.71	-14.1	-0.000
641.715	-14.1	0.000
641.72	-14.1	0.000
641.725	-14.0	-0.000
641.73	-14.0	-0.000
641.735	-14.0	-0.000
641.74	-14.0	-0.000
641.745	-13.9	-0.000
641.75	-13.9	0.000
641.755	-13.9	0.000
641.76	-13.9	-0.001
641.765	-13.9	0.000
641.77	-13.9	-0.000
641.775	-13.9	0.000
641.78	-13.8	-0.000
641.785	-13.7	0.000
641.79	-13.7	-0.000
641.795	-13.6	-0.000
641.8	-13.6	0.000
641.805	-13.6	-0.001
641.81	-13.6	-0.001
641.815	-13.5	0.000
641.82	-13.5	0.000
641.825	-13.5	-0.001
641.83	-13.5	-0.001
641.835	-13.5	-0.001
641.84	-13.4	-0.001
641.845	-13.4	-0.000
641.85	-13.4	-0.001
641.855	-13.4	-0.000
641.86	-13.3	0.000
641.865	-13.3	-0.001
641.87	-13.3	-0.000
641.875	-13.3	-0.000
641.88	-13.3	-0.001
641.885	-13.3	0.000
641.89	-13.2	-0.000
641.895	-13.2	0.000
641.9	-13.2	-0.001
641.905	-13.2	0.000
641.91	-13.2	0.000
641.915	-13.2	-0.000
641.92	-13.2	0.000
641.925	-13.1	-0.000
641.93	-13.1	0.000
641.935	-13.1	-0.000
641.94	-13.0	0.000
641.945	-13.0	-0.001
641.95	-13.0	0.000
641.955	-13.1	-0.001
641.96	-13.1	0.000
641.965	-13.0	0.000
641.97	-13.1	0.000
641.975	-13.1	-0.001
641.98	-13.0	-0.001
641.985	-13.0	-0.001
641.99	-12.9	0.000
641.995	-12.9	-0.001
642	-13.0	-0.001
642.005	-13.0	-0.000
642.01	-13.0	-0.001
642.015	-13.0	-0.001
642.02	-13.0	-0.001
642.025	-13.0	-0.001
642.03	-13.0	-0.001
642.035	-13.0	-0.001
642.04	-13.0	-0.000
642.045	-12.9	-0.000
642.05	-12.9	-0.000
642.055	-13.0	0.000
642.06	-13.0	-0.000
642.065	-13.0	-0.001
642.07	-13.0	0.000
642.075	-13.0	0.000
642.08	-13.0	0.000
642.085	-13.0	-0.000
642.09	-13.1	-0.000
642.095	-13.1	0.000
642.1	-13.1	0.000
642.105	-13.1	-0.000
642.11	-13.1	-0.000
642.115	-13.2	-0.000
642.12	-13.2	-0.000
642.125	-13.2	-0.001
642.13	-13.2	-0.000
642.135	-13.2	-0.000
642.14	-13.3	-0.001
642.145	-13.2	0.000
642.15	-13.3	-0.000
642.155	-13.3	-0.000
642.16	-13.3	-0.001
642.165	-13.3	-0.001
642.17	-13.3	-0.000
642.175	-13.4	-0.000
642.18	-13.4	-0.001
642.185	-13.4	-0.001
642.19	-13.4	-0.001
642.195	-13.4	-0.000
642.2	-13.4	-0.000
642.205	-13.4	-0.000
642.21	-13.4	0.000
642.215	-13.4	-0.001
642.22	-13.4	0.000
642.225	-13.5	-0.001
642.23	-13.5	-0.000
642.235	-13.5	0.000
642.24	-13.5	0.000
642.245	-13.5	-0.000
642.25	-13.5	-0.000
642.255	-13.5	-0.000
642.26	-13.5	-0.000
642.265	-13.4	-0.000
642.27	-13.4	-0.000
642.275	-13.5	0.000
642.28	-13.5	-0.001
642.285	-13.5	-0.000
642.29	-13.4	-0.001
642.295	-13.4	-0.001
642.3	-13.4	-0.000
642.305	-13.4	-0.001
642.31	-13.4	0.000
642.315	-13.4	0.000
642.32	-13.4	-0.000
642.325	-13.4	-0.000
642.33	-13.4	-0.001
642.335	-13.4	-0.001
642.34	-13.3	-0.000
642.345	-13.3	-0.000
642.35	-13.4	-0.000
642.355	-13.3	-0.000
642.36	-13.3	-0.000
642.365	-13.3	-0.000
642.37	-13.2	-0.001
642.375	-13.2	-0.001
642.38	-13.3	0.000
642.385	-13.2	-0.000
642.39	-13.2	-0.000
642.395	-13.2	0.000
642.4	-13.2	-0.001
642.405	-13.3	-0.000
642.41	-13.3	-0.001
642.415	-13.3	0.000
642.42	-13.2	0.000
642.425	-13.2	-0.000
642.43	-13.2	0.000
642.435	-13.2	-0.000
642.44	-13.1	-0.000
642.445	-13.1	-0.000
642.45	-13.1	-0.000
642.455	-13.1	0.000
642.46	-13.1	-0.001
642.465	-13.1	0.000
642.47	-13.1	-0.000
642.475	-13.1	-0.000
642.48	-13.1	-0.001
642.485	-13.1	-0.000
642.49	-13.1	-0.001
642.495	-13.1	-0.000
642.5	-13.1	0.000
642.505	-13.1	-0.000
642.51	-13.0	-0.000
642.515	-13.0	0.000
642.52	-13.0	-0.000
642.525	-13.0	-0.000
642.53	-13.0	-0.001
642.535	-13.0	-0.000
642.54	-13.1	0.000
642.545	-13.1	-0.000
642.55	-13.0	-0.000
642.555	-13.0	-0.000
642.56	-13.0	-0.000
642.565	-13.0	-0.000
642.57	-13.0	0.000
642.575	-13.0	-0.001
642.58	-13.0	-0.000
642.585	-13.0	0.000
642.59	-13.0	-0.000
642.595	-13.1	0.000
642.6	-13.1	-0.000
642.605	-13.1	-0.000
642.61	-13.0	0.000
642.615	-13.1	0.000
642.62	-13.1	-0.001
642.625	-13.0	-0.000
642.63	-13.0	-0.001
642.635	-13.1	-0.000
642.64	-13.1	0.000
642.645	-13.1	-0.000
642.65	-13.0	0.000
642.655	-13.1	-0.000
642.66	-13.1	-0.001
642.665	-13.0	-0.001
642.67	-13.1	-0.000
642.675	-13.1	0.000
642.68	-13.1	-0.001
642.685	-13.1	-0.000
642.69	-13.1	-0.000
642.695	-13.0	-0.000
642.7	-13.0	-0.001
642.705	-13.0	-0.001
642.71	-13.1	-0.000
642.715	-13.1	-0.001
642.72	-13.1	0.000
642.725	-13.1	-0.000
642.73	-13.1	0.000
642.735	-13.1	-0.000
642.74	-13.1	0.000
642.745	-13.1	-0.000
642.75	-13.1	0.000
642.755	-13.1	-0.000
642.76	-13.1	-0.001
642.765	-13.1	0.000
642.77	-13.1	0.000
642.775	-13.1	-0.000
642.78	-13.1	-0.000
642.785	-13.1	-0.001
642.79	-13.1	0.000
642.795	-13.2	-0.000
642.8	-13.2	-0.001
642.805	-13.2	-0.000
642.81	-13.2	-0.001
642.815	-13.2	-0.001
642.82	-13.2	-0.000
642.825	-13.2	0.000
642.83	-13.2	-0.001
642.835	-13.2	-0.001
642.84	-13.2	-0.000
642.845	-13.2	-0.001
642.85	-13.3	-0.000
642.855	-13.3	-0.001
642.86	-13.3	-0.000
642.865	-13.3	-0.001
642.87	-13.3	-0.001
642.875	-13.3	-0.000
642.88	-13.3	-0.000
642.885	-13.3	0.000
642.89	-13.3	-0.001
642.895	-13.3	-0.000
642.9	-13.4	-0.001
642.905	-13.4	-0.000
642.91	-13.4	-0.000
642.915	-13.4	-0.001
642.92	-13.4	0.000
642.925	-13.4	0.000
642.93	-13.4	-0.000
642.935	-13.4	-0.001
642.94	-13.5	-0.000
642.945	-13.6	-0.000
642.95	-13.6	-0.000
642.955	-13.6	-0.001
642.96	-13.6	-0.001
642.965	-13.5	-0.000
642.97	-13.5	0.000
642.975	-13.4	-0.000
642.98	-13.3	-0.001
642.985	-13.3	0.000
642.99	-13.3	-0.000
642.995	-13.4	0.000
643	-13.5	-0.000
643.005	-13.5	-0.000
643.01	-13.5	-0.000
643.015	-13.5	-0.000
643.02	-13.5	0.000
643.025	-13.4	-0.000
643.03	-13.4	-0.001
643.035	-13.4	0.000
643.04	-13.4	-0.001
643.045	-13.5	-0.000
643.05	-13.5	-0.000
643.055	-13.5	-0.000
643.06	-13.4	-0.000
643.065	-13.3	-0.000
643.07	-13.2	-0.000
643.075	-13.3	-0.000
643.08	-13.3	-0.000
643.085	-13.4	-0.000
643.09	-13.4	0.000
643.095	-13.5	-0.000
643.1	-13.4	-0.000
643.105	-13.4	-0.001
643.11	-13.3	-0.001
643.115	-13.2	-0.000
643.12	-13.1	0.000
643.125	-13.1	-0.000
643.13	-13.2	0.000
643.135	-13.3	0.000
643.14	-13.3	0.000
643.145	-13.3	0.000
643.15	-13.3	-0.001
643.155	-13.2	-0.001
643.16	-13.2	-0.000
643.165	-13.1	-0.000
643.17	-13.2	-0.001
643.175	-13.2	-0.000
643.18	-13.2	-0.000
643.185	-13.3	-0.000
643.19	-13.3	-0.000
643.195	-13.3	-0.000
643.2	-13.3	-0.000
643.205	-13.2	-0.001
643.21	-13.2	-0.000
643.215	-13.3	-0.001
643.22	-13.3	-0.000
643.225	-13.2	-0.000
643.23	-13.2	-0.000
643.235	-13.3	-0.000
643.24	-13.2	-0.000
643.245	-13.2	0.000
643.25	-13.2	-0.000
643.255	-13.2	0.000
643.26	-13.3	-0.001
643.265	-13.3	0.000
643.27	-13.3	-0.000
643.275	-13.3	-0.001
643.28	-13.3	0.000
643.285	-13.3	-0.000
643.29	-13.3	-0.001
643.295	-13.3	-0.001
643.3	-13.3	-0.000
643.305	-13.2	-0.001
643.31	-13.2	-0.000
643.315	-13.3	-0.001
643.32	-13.3	0.000
643.325	-13.2	0.000
643.33	-13.2	-0.001
643.335	-13.2	0.000
643.34	-13.3	0.000
643.345	-13.3	0.000
643.35	-13.3	-0.001
643.355	-13.3	-0.001
643.36	-13.2	0.000
643.365	-13.1	-0.000
643.37	-13.1	-0.001
643.375	-13.1	-0.001
643.38	-13.1	-0.001
643.385	-13.2	-0.000
643.39	-13.2	-0.000
643.395	-13.2	-0.000
643.4	-13.2	-0.001
643.405	-13.2	-0.000
643.41	-13.1	0.000
643.415	-13.1	0.000
643.42	-13.0	-0.000
643.425	-13.0	-0.000
643.43	-13.1	-0.000
643.435	-13.1	-0.000
643.44	-13.1	-0.000
643.445	-13.0	-0.001
643.45	-13.0	-0.001
643.455	-13.0	0.000
643.46	-13.0	0.000
643.465	-12.9	-0.000
643.47	-13.0	-0.001
643.475	-13.0	0.000
643.48	-13.0	-0.001
643.485	-13.0	0.000
643.49	-13.0	-0.001
643.495	-13.0	-0.001
643.5	-12.9	-0.000
643.505	-12.9	-0.001
643.51	-12.9	-0.000
643.515	-12.9	-0.001
643.52	-12.9	-0.001
643.525	-12.9	0.000
643.53	-12.9	-0.001
643.535	-12.9	-0.001
643.54	-12.9	-0.001
643.545	-12.8	-0.000
643.55	-12.8	0.000
643.555	-14.4	-0.001
643.56	-17.4	-0.000
643.565	-13.5	-0.000
643.57	-11.5	0.000
643.575	-11.6	-0.000
643.58	-11.9	0.000
643.585	-12.0	-0.000
643.59	-12.0	-0.000
643.595	-12.1	0.000
643.6	-12.1	-0.000
643.605	-12.2	0.000
643.61	-12.3	-0.001
643.615	-12.3	-0.000
643.62	-12.3	0.000
643.625	-12.4	-0.001
643.63	-12.4	-0.000
643.635	-12.4	-0.001
643.64	-12.4	-0.001
643.645	-12.4	-0.000
643.65	-12.5	0.000
643.655	-12.5	-0.000
643.66	-12.6	-0.000
643.665	-12.5	-0.000
643.67	-12.5	0.000
643.675	-12.5	-0.000
643.68	-12.5	0.000
643.685	-12.5	-0.001
643.69	-12.5	0.000
643.695	-12.5	-0.001
643.7	-12.5	-0.000
643.705	-12.6	-0.000
643.71	-12.6	-0.001
643.715	-12.6	-0.001
643.72	-12.6	0.000
643.725	-12.6	-0.000
643.73	-12.6	-0.001
643.735	-12.6	0.000
643.74	-12.5	0.000
643.745	-12.5	-0.000
643.75	-12.5	-0.000
643.755	-12.5	-0.000
643.76	-12.5	-0.001
643.765	-12.5	-0.000
643.77	-12.5	-0.000
643.775	-12.5	0.000
643.78	-12.5	-0.001
643.785	-12.5	-0.001
643.79	-12.5	-0.000
643.795	-12.5	-0.001
643.8	-12.5	-0.000
643.805	-12.5	-0.000
643.81	-12.5	-0.001
643.815	-12.5	0.000
643.82	-12.5	-0.000
643.825	-12.5	0.000
643.83	-12.5	-0.001
643.835	-12.5	0.000
643.84	-12.5	-0.001
643.845	-12.5	0.000
643.85	-12.6	-0.000
643.855	-12.6	0.000
643.86	-12.6	0.000
643.865	-12.6	0.000
643.87	-12.7	-0.000
643.875	-12.7	-0.000
643.88	-12.8	-0.000
643.885	-12.8	-0.001
643.89	-12.9	-0.000
643.895	-12.9	-0.000
643.9	-12.9	-0.001
643.905	-13.0	-0.000
643.91	-13.0	-0.000
643.915	-13.1	-0.000
643.92	-13.1	-0.001
643.925	-13.1	-0.001
643.93	-13.1	-0.000
643.935	-13.2	-0.000
643.94	-13.2	-0.000
643.945	-13.2	0.000
643.95	-13.3	-0.000
643.955	-13.4	-0.000
643.96	-13.4	-0.000
643.965	-13.5	-0.000
643.97	-13.5	0.000
643.975	-13.5	-0.000
643.98	-13.6	-0.000
643.985	-13.6	-0.000
643.99	-13.6	0.000
643.995	-13.6	-0.000
644	-13.6	-0.000
644.005	-13.6	-0.000
644.01	-13.6	0.000
644.015	-13.6	-0.001
644.02	-13.6	0.000
644.025	-13.6	0.000
644.03	-13.7	0.000
644.035	-13.8	-0.000
644.04	-13.8	-0.001
644.045	-13.8	-0.001
644.05	-13.8	-0.000
644.055	-13.8	-0.001
644.06	-13.7	0.000
644.065	-13.7	-0.000
644.07	-13.7	-0.001
644.075	-13.7	-0.000
644.08	-13.7	-0.000
644.085	-13.7	-0.000
644.09	-13.7	0.000
644.095	-13.7	-0.000
644.1	-13.7	-0.001
644.105	-13.6	-0.001
644.11	-13.7	-0.001
644.115	-13.7	-0.001
644.12	-13.7	-0.000
644.125	-13.7	-0.000
644.13	-13.7	-0.000
644.135	-13.7	-0.001
644.14	-13.6	0.000
644.145	-13.6	-0.001
644.15	-13.5	-0.001
644.155	-13.5	0.000
644.16	-13.4	-0.001
644.165	-13.4	0.000
644.17	-13.5	0.000
644.175	-13.5	-0.001
644.18	-13.5	-0.000
644.185	-13.5	-0.001
644.19	-13.5	-0.000
644.195	-13.4	-0.001
644.2	-13.4	-0.001
644.205	-13.3	-0.000
644.21	-13.3	-0.001
644.215	-13.4	-0.000
644.22	-13.4	-0.000
644.225	-13.3	-0.000
644.23	-13.2	-0.000
644.235	-13.2	-0.000
644.24	-13.2	-0.000
644.245	-13.2	-0.001
644.25	-13.2	0.000
644.255	-13.1	-0.000
644.26	-13.1	-0.001
644.265	-13.1	0.000
644.27	-13.2	0.000
644.275	-13.2	-0.001
644.28	-13.1	-0.001
644.285	-13.1	-0.001
644.29	-13.1	-0.001
644.295	-13.0	-0.000
644.3	-13.0	-0.000
644.305	-13.0	-0.001
644.31	-13.0	0.000
644.315	-13.0	-0.000
644.32	-13.0	-0.001
644.325	-12.9	0.000
644.33	-12.9	-0.001
644.335	-13.0	0.000
644.34	-13.0	0.000
644.345	-13.0	0.000
644.35	-13.0	-0.000
644.355	-13.0	0.000
644.36	-13.0	-0.001
644.365	-13.0	-0.000
644.37	-12.9	0.000
644.375	-12.9	-0.001
644.38	-12.9	-0.000
644.385	-12.9	-0.001
644.39	-12.9	0.000
644.395	-12.9	-0.001
644.4	-12.9	-0.000
644.405	-12.9	0.000
644.41	-12.9	-0.000
644.415	-12.9	-0.001
644.42	-12.9	-0.000
644.425	-12.9	-0.000
644.43	-12.9	-0.001
644.435	-12.9	0.000
644.44	-13.0	-0.000
644.445	-12.9	-0.001
644.45	-12.9	-0.001
644.455	-12.9	-0.000
644.46	-12.9	0.000
644.465	-12.9	-0.001
644.47	-12.9	0.000
644.475	-12.9	0.000
644.48	-12.9	0.000
644.485	-12.9	-0.001
644.49	-13.0	-0.000
644.495	-13.0	-0.001
644.5	-13.1	-0.001
644.505	-13.1	-0.000
644.51	-13.1	-0.000
644.515	-13.1	-0.001
644.52	-13.0	-0.000
644.525	-13.0	0.000
644.53	-13.0	-0.000
644.535	-13.1	-0.001
644.54	-13.1	0.000
644.545	-13.1	0.000
644.55	-13.0	-0.000
644.555	-13.0	-0.000
644.56	-13.1	-0.000
644.565	-13.1	-0.001
644.57	-13.1	0.000
644.575	-13.1	-0.001
644.58	-13.1	-0.000
644.585	-13.1	-0.001
644.59	-13.1	0.000
644.595	-13.0	-0.000
644.6	-13.0	-0.001
644.605	-13.1	0.000
644.61	-13.1	-0.001
644.615	-13.1	-0.001
644.62	-13.1	0.000
644.625	-13.2	-0.000
644.63	-13.1	-0.001
644.635	-13.1	0.000
644.64	-13.1	-0.000
644.645	-13.0	-0.001
644.65	-13.0	-0.000
644.655	-13.0	-0.001
644.66	-13.0	0.000
644.665	-13.0	-0.000
644.67	-13.0	-0.000
644.675	-13.0	-0.000
644.68	-13.0	0.000
644.685	-13.0	-0.000
644.69	-13.0	-0.001
644.695	-13.0	-0.000
644.7	-13.0	-0.000
644.705	-13.0	-0.000
644.71	-12.9	-0.001
644.715	-13.0	-0.000
644.72	-13.0	-0.001
644.725	-13.0	-0.001
644.73	-13.0	-0.000
644.735	-13.0	0.000
644.74	-12.9	-0.000
644.745	-12.9	-0.000
644.75	-12.9	-0.000
644.755	-12.9	-0.000
644.76	-13.0	0.000
644.765	-13.0	0.000
644.77	-13.0	-0.000
644.775	-13.0	0.000
644.78	-13.0	-0.001
644.785	-13.0	-0.000
644.79	-12.9	0.000
644.795	-12.9	-0.001
644.8	-12.9	-0.001
644.805	-12.9	-0.001
644.81	-13.0	-0.001
644.815	-13.0	0.000
644.82	-13.0	-0.000
644.825	-13.0	-0.001
644.83	-13.0	-0.000
644.835	-13.0	-0.000
644.84	-12.9	0.000
644.845	-12.8	-0.000
644.85	-12.7	-0.001
644.855	-12.8	0.000
644.86	-12.8	0.000
644.865	-12.9	-0.000
644.87	-12.9	-0.000
644.875	-12.9	-0.000
644.88	-12.9	-0.000
644.885	-12.9	-0.001
644.89	-12.9	-0.001
644.895	-12.9	-0.001
644.9	-12.8	-0.001
644.905	-12.7	-0.000
644.91	-12.7	0.000
644.915	-12.8	-0.000
644.92	-12.9	0.000
644.925	-12.9	-0.000
644.93	-12.9	0.000
644.935	-12.9	-0.000
644.94	-12.8	0.000
644.945	-12.8	-0.001
644.95	-12.8	0.000
644.955	-12.8	-0.001
644.96	-12.7	-0.001
644.965	-12.7	-0.001
644.97	-12.8	-0.000
644.975	-12.9	-0.000
644.98	-12.9	-0.001
644.985	-12.8	-0.000
644.99	-12.8	-0.000
644.995	-12.9	-0.000
645	-12.9	-0.001
645.005	-12.9	-0.000
645.01	-12.8	-0.000
645.015	-12.9	-0.000
645.02	-12.9	-0.000
645.025	-12.9	0.000
645.03	-12.9	-0.000
645.035	-12.8	-0.000
645.04	-12.8	-0.001
645.045	-12.8	-0.000
645.05	-12.8	0.000
645.055	-12.9	-0.000
645.06	-12.9	-0.000
645.065	-12.8	0.000
645.07	-12.8	-0.000
645.075	-12.8	0.000
645.08	-12.9	0.000
645.085	-12.9	0.000
645.09	-12.9	-0.001
645.095	-12.9	-0.000
645.1	-12.8	0.000
645.105	-12.8	-0.001
645.11	-12.8	-0.000
645.115	-12.8	0.000
645.12	-12.8	-0.000
645.125	-12.8	0.000
645.13	-12.8	-0.000
645.135	-12.9	-0.000
645.14	-12.8	-0.000
645.145	-12.8	0.000
645.15	-12.8	-0.000
645.155	-12.8	-0.000
645.16	-12.7	0.000
645.165	-12.7	-0.001
645.17	-12.7	-0.001
645.175	-12.7	-0.000
645.18	-12.8	-0.001
645.185	-12.8	-0.001
645.19	-12.8	-0.000
645.195	-12.8	-0.000
645.2	-12.8	-0.000
645.205	-12.8	-0.000
645.21	-12.9	0.000
645.215	-12.9	-0.001
645.22	-12.9	0.000
645.225	-12.9	-0.000
645.23	-12.9	-0.001
645.235	-12.9	0.000
645.24	-12.9	-0.000
645.245	-12.8	-0.000
645.25	-12.8	0.000
645.255	-12.8	0.000
645.26	-12.8	-0.000
645.265	-12.8	-0.001
645.27	-12.8	-0.000
645.275	-12.8	-0.001
645.28	-12.8	-0.000
645.285	-12.8	-0.000
645.29	-12.8	-0.001
645.295	-12.8	-0.000
645.3	-12.8	-0.000
645.305	-12.8	-0.001
645.31	-12.9	0.000
645.315	-12.9	-0.000
645.32	-13.0	-0.000
645.325	-13.0	-0.000
645.33	-13.0	-0.000
645.335	-13.0	-0.000
645.34	-13.0	-0.000
645.345	-13.0	-0.001
645.35	-13.0	-0.000
645.355	-13.0	0.000
645.36	-13.0	0.000
645.365	-13.0	-0.001
645.37	-13.1	-0.000
645.375	-13.1	-0.001
645.38	-13.1	-0.001
645.385	-13.1	0.000
645.39	-13.1	0.000
645.395	-13.0	-0.000
645.4	-13.0	-0.001
645.405	-13.1	-0.000
645.41	-13.1	-0.000
645.415	-13.1	-0.000
645.42	-13.0	-0.000
645.425	-12.9	-0.000
645.43	-12.9	0.000
645.435	-12.9	-0.001
645.44	-12.9	-0.001
645.445	-12.9	-0.001
645.45	-12.9	-0.001
645.455	-12.9	-0.000
645.46	-12.8	-0.001
645.465	-12.8	-0.000
645.47	-12.8	-0.001
645.475	-12.8	-0.000
645.48	-12.8	-0.000
645.485	-12.7	-0.001
645.49	-12.7	-0.000
645.495	-12.7	-0.001
645.5	-12.6	-0.001
645.505	-12.6	-0.000
645.51	-12.7	-0.001
645.515	-12.7	-0.001
645.52	-12.7	0.000
645.525	-12.7	0.000
645.53	-12.7	0.000
645.535	-12.7	-0.001
645.54	-12.7	0.000
645.545	-12.7	0.000
645.55	-12.7	-0.000
645.555	-12.7	-0.000
645.56	-12.7	-0.001
645.565	-12.6	-0.001
645.57	-12.6	0.000
645.575	-12.6	0.000
645.58	-12.6	-0.000
645.585	-12.6	-0.000
645.59	-12.6	-0.000
645.595	-12.6	-0.000
645.6	-12.6	-0.000
645.605	-12.6	-0.000
645.61	-12.6	-0.001
645.615	-12.7	-0.000
645.62	-12.6	-0.000
645.625	-12.5	-0.000
645.63	-12.5	-0.000
645.635	-12.5	0.000
645.64	-12.6	-0.000
645.645	-12.6	-0.000
645.65	-12.6	-0.000
645.655	-12.6	-0.000
645.66	-12.6	-0.000
645.665	-12.6	-0.001
645.67	-12.6	-0.000
645.675	-12.6	-0.001
645.68	-12.6	-0.000
645.685	-12.6	-0.000
645.69	-12.6	0.000
645.695	-12.6	-0.001
645.7	-12.6	0.000
645.705	-12.6	-0.000
645.71	-12.6	-0.000
645.715	-12.7	0.000
645.72	-12.6	-0.000
645.725	-12.6	-0.000
645.73	-12.6	-0.000
645.735	-12.6	0.000
645.74	-12.6	-0.001
645.745	-12.6	0.000
645.75	-12.5	-0.000
645.755	-12.5	-0.000
645.76	-12.5	0.000
645.765	-12.5	0.000
645.77	-12.5	-0.001
645.775	-12.5	-0.000
645.78	-12.5	-0.000
645.785	-12.5	-0.000
645.79	-12.5	-0.000
645.795	-12.5	0.000
645.8	-12.5	0.000
645.805	-12.5	-0.001
645.81	-12.5	-0.000
645.815	-12.5	0.000
645.82	-12.6	-0.000
645.825	-12.6	0.000
645.83	-12.6	-0.000
645.835	-12.7	0.000
645.84	-12.7	-0.001
645.845	-12.7	-0.001
645.85	-12.7	-0.000
645.855	-12.7	-0.001
645.86	-12.7	-0.000
645.865	-12.7	0.000
645.87	-12.7	-0.000
645.875	-12.8	-0.000
645.88	-12.8	0.000
645.885	-12.8	-0.000
645.89	-12.8	-0.000
645.895	-12.8	-0.000
645.9	-12.8	-0.001
645.905	-12.8	0.001
645.91	-12.8	-0.001
645.915	-12.8	0.000
645.92	-12.7	-0.000
645.925	-12.7	-0.000
645.93	-12.8	0.000
645.935	-12.8	-0.001
645.94	-12.8	0.000
645.945	-12.8	0.000
645.95	-12.8	-0.000
645.955	-12.8	-0.000
645.96	-12.8	-0.001
645.965	-12.8	-0.000
645.97	-12.8	-0.001
645.975	-12.8	-0.001
645.98	-12.8	-0.001
645.985	-12.9	-0.000
645.99	-12.9	-0.000
645.995	-12.9	-0.000
646	-12.9	-0.000
646.005	-12.9	-0.000
646.01	-12.9	-0.000
646.015	-12.9	0.000
646.02	-12.9	-0.001
646.025	-12.9	-0.000
646.03	-12.9	-0.000
646.035	-12.9	0.000
646.04	-12.9	-0.001
646.045	-12.9	-0.000
646.05	-12.9	-0.001
646.055	-12.9	-0.001
646.06	-12.9	-0.001
646.065	-12.9	-0.001
646.07	-12.9	-0.001
646.075	-13.0	-0.001
646.08	-13.0	-0.000
646.085	-13.0	0.000
646.09	-13.0	0.000
646.095	-13.0	-0.000
646.1	-13.0	-0.001
646.105	-13.0	-0.001
646.11	-12.9	-0.000
646.115	-12.9	0.000
646.12	-12.9	0.000
646.125	-12.9	-0.000
646.13	-12.9	-0.000
646.135	-12.9	-0.001
646.14	-12.9	-0.000
646.145	-12.8	-0.000
646.15	-12.8	0.000
646.155	-12.9	-0.000
646.16	-12.9	-0.001
646.165	-12.8	-0.000
646.17	-12.8	0.000
646.175	-12.8	-0.001
646.18	-12.7	-0.000
646.185	-12.7	-0.000
646.19	-12.7	-0.001
646.195	-12.7	-0.000
646.2	-12.6	-0.000
646.205	-12.6	-0.000
646.21	-12.5	0.000
646.215	-12.5	-0.000
646.22	-12.5	0.000
646.225	-12.6	-0.001
646.23	-13.7	-0.001
646.235	-17.3	-0.000
646.24	-14.1	0.000
646.245	-11.3	-0.000
646.25	-11.4	0.000
646.255	-11.7	-0.000
646.26	-11.8	-0.000
646.265	-11.8	-0.001
646.27	-11.8	0.000
646.275	-11.9	0.000
646.28	-11.9	0.000
646.285	-11.9	-0.001
646.29	-12.0	0.000
646.295	-12.1	-0.000
646.3	-12.1	0.000
646.305	-12.1	-0.000
646.31	-12.1	-0.000
646.315	-12.1	-0.001
646.32	-12.1	-0.001
646.325	-12.2	0.000
646.33	-12.2	0.000
646.335	-12.2	-0.001
646.34	-12.2	-0.000
646.345	-12.2	-0.000
646.35	-12.2	0.000
646.355	-12.2	-0.000
646.36	-12.2	0.000
646.365	-12.2	0.000
646.37	-12.2	0.000
646.375	-12.2	-0.000
646.38	-12.2	-0.000
646.385	-12.2	-0.001
646.39	-12.2	-0.000
646.395	-12.1	-0.001
646.4	-12.1	-0.001
646.405	-12.1	-0.000
646.41	-12.0	-0.000
646.415	-12.0	-0.001
646.42	-11.9	-0.001
646.425	-11.9	-0.000
646.43	-11.8	-0.000
646.435	-11.8	-0.001
646.44	-11.7	-0.000
646.445	-11.6	-0.001
646.45	-11.6	-0.001
646.455	-11.6	0.000
646.46	-11.6	0.000
646.465	-11.6	-0.000
646.47	-11.6	-0.000
646.475	-11.6	-0.001
646.48	-11.6	-0.001
646.485	-11.6	0.000
646.49	-11.6	-0.000
646.495	-11.6	-0.001
646.5	-11.5	-0.001
646.505	-11.5	-0.000
646.51	-11.6	0.000
646.515	-11.6	-0.001
646.52	-11.6	-0.001
646.525	-11.6	-0.000
646.53	-11.7	-0.001
646.535	-11.7	0.000
646.54	-11.8	0.000
646.545	-11.8	-0.000
646.55	-11.8	-0.001
646.555	-11.9	0.000
646.56	-12.0	-0.001
646.565	-12.0	0.000
646.57	-12.1	-0.000
646.575	-12.2	-0.000
646.58	-12.2	-0.001
646.585	-12.3	0.000
646.59	-12.4	0.000
646.595	-12.4	-0.000
646.6	-12.5	-0.000
646.605	-12.5	-0.000
646.61	-12.7	-0.000
646.615	-12.7	0.000
646.62	-12.8	0.000
646.625	-12.8	0.000
646.63	-12.9	-0.000
646.635	-13.0	0.000
646.64	-13.0	-0.001
646.645	-13.1	-0.000
646.65	-13.2	0.000
646.655	-13.2	-0.000
646.66	-13.2	0.000
646.665	-13.2	0.000
646.67	-13.3	-0.000
646.675	-13.3	-0.000
646.68	-13.3	-0.000
646.685	-13.4	-0.000
646.69	-13.4	0.000
646.695	-13.5	-0.000
646.7	-13.5	-0.000
646.705	-13.5	0.000
646.71	-13.5	0.000
646.715	-13.5	-0.001
646.72	-13.5	-0.001
646.725	-13.5	-0.000
646.73	-13.5	0.000
646.735	-13.5	-0.000
646.74	-13.5	-0.000
646.745	-13.5	-0.001
646.75	-13.5	-0.001
646.755	-13.5	-0.000
646.76	-13.5	0.000
646.765	-13.5	-0.000
646.77	-13.5	-0.001
646.775	-13.5	0.000
646.78	-13.5	0.000
646.785	-13.5	0.000
646.79	-13.5	0.000
646.795	-13.5	-0.000
646.8	-13.4	-0.001
646.805	-13.4	-0.001
646.81	-13.4	-0.000
646.815	-13.4	-0.001
646.82	-13.4	-0.000
646.825	-13.4	0.000
646.83	-13.3	-0.000
646.835	-13.3	-0.000
646.84	-13.3	-0.000
646.845	-13.3	0.000
646.85	-13.3	-0.000
646.855	-13.3	-0.000
646.86	-13.2	-0.001
646.865	-13.2	-0.001
646.87	-13.2	-0.001
646.875	-13.2	-0.000
646.88	-13.2	-0.001
646.885	-13.2	-0.000
646.89	-13.2	-0.000
646.895	-13.1	-0.001
646.9	-13.1	-0.001
646.905	-13.1	0.000
646.91	-13.1	-0.000
646.915	-13.1	0.000
646.92	-13.1	-0.001
646.925	-13.0	0.000
646.93	-13.0	0.000
646.935	-13.0	-0.001
646.94	-13.0	0.000
646.945	-12.9	-0.000
646.95	-12.9	-0.001
646.955	-12.9	-0.000
646.96	-12.9	-0.000
646.965	-12.9	-0.000
646.97	-12.8	0.000
646.975	-12.8	-0.001
646.98	-12.7	-0.000
646.985	-12.7	-0.001
646.99	-12.7	-0.000
646.995	-12.7	-0.000
647	-12.7	-0.001
647.005	-12.7	-0.000
647.01	-12.7	0.000
647.015	-12.7	0.000
647.02	-12.7	-0.000
647.025	-12.6	-0.001
647.03	-12.6	0.000
647.035	-12.6	0.000
647.04	-12.6	0.000
647.045	-12.6	0.000
647.05	-12.6	-0.000
647.055	-12.6	-0.000
647.06	-12.5	0.000
647.065	-12.5	-0.000
647.07	-12.5	-0.000
647.075	-12.5	-0.001
647.08	-12.5	-0.001
647.085	-12.5	-0.001
647.09	-12.4	-0.000
647.095	-12.4	-0.000
647.1	-11.9	-0.000
647.105	-11.5	-0.000
647.11	-11.6	-0.000
647.115	-12.0	-0.000
647.12	-12.3	-0.000
647.125	-12.4	-0.001
647.13	-12.4	-0.001
647.135	-12.5	0.000
647.14	-12.5	-0.000
647.145	-12.5	0.000
647.15	-12.5	-0.000
647.155	-12.5	-0.000
647.16	-12.5	-0.000
647.165	-12.4	-0.001
647.17	-12.5	-0.000
647.175	-12.5	-0.000
647.18	-12.5	-0.000
647.185	-12.5	-0.000
647.19	-12.5	-0.000
647.195	-12.5	0.000
647.2	-12.5	-0.000
647.205	-12.5	-0.000
647.21	-12.5	-0.001
647.215	-12.5	-0.000
647.22	-12.5	-0.001
647.225	-12.5	0.000
647.23	-12.6	-0.001
647.235	-12.6	-0.001
647.24	-12.6	-0.000
647.245	-12.6	-0.001
647.25	-12.6	-0.000
647.255	-12.6	-0.000
647.26	-12.6	-0.001
647.265	-12.6	-0.000
647.27	-12.6	-0.000
647.275	-12.6	-0.001
647.28	-12.5	-0.000
647.285	-12.5	-0.000
647.29	-12.4	-0.000
647.295	-12.4	-0.001
647.3	-12.4	-0.000
647.305	-12.4	-0.000
647.31	-12.5	-0.000
647.315	-12.4	0.000
647.32	-12.4	-0.000
647.325	-12.4	-0.000
647.33	-12.4	-0.000
647.335	-12.4	-0.000
647.34	-12.4	-0.001
647.345	-12.3	0.000
647.35	-12.3	0.000
647.355	-12.3	-0.001
647.36	-12.3	-0.001
647.365	-12.3	-0.001
647.37	-12.3	0.000
647.375	-12.3	-0.001
647.38	-12.3	-0.001
647.385	-12.3	-0.000
647.39	-12.2	-0.000
647.395	-12.2	-0.001
647.4	-12.1	-0.000
647.405	-12.1	-0.000
647.41	-11.8	-0.001
647.415	-11.6	0.000
647.42	-11.9	-0.000
647.425	-12.1	-0.001
647.43	-12.2	-0.000
647.435	-12.2	-0.000
647.44	-12.2	-0.000
647.445	-12.2	-0.000
647.45	-12.1	-0.000
647.455	-12.1	-0.001
647.46	-12.0	-0.000
647.465	-12.1	0.000
647.47	-12.2	-0.000
647.475	-12.2	-0.000
647.48	-12.1	-0.000
647.485	-12.1	-0.000
647.49	-12.2	-0.001
647.495	-12.2	0.000
647.5	-12.2	-0.001
647.505	-12.2	-0.000
647.51	-12.1	0.000
647.515	-12.1	-0.001
647.52	-12.1	0.000
647.525	-12.2	-0.001
647.53	-12.2	-0.000
647.535	-12.3	0.000
647.54	-12.3	0.000
647.545	-12.3	-0.001
647.55	-12.3	-0.000
647.555	-12.2	-0.001
647.56	-12.2	-0.001
647.565	-12.2	0.000
647.57	-12.2	-0.001
647.575	-12.2	-0.000
647.58	-12.0	-0.000
647.585	-11.9	-0.000
647.59	-12.0	-0.000
647.595	-12.1	-0.000
647.6	-12.1	0.000
647.605	-12.1	0.000
647.61	-12.2	-0.001
647.615	-12.2	-0.001
647.62	-12.2	-0.001
647.625	-12.2	0.000
647.63	-12.2	-0.001
647.635	-12.2	-0.000
647.64	-12.2	0.000
647.645	-12.2	0.000
647.65	-12.2	-0.001
647.655	-12.2	0.000
647.66	-12.3	-0.001
647.665	-12.3	-0.000
647.67	-12.3	-0.001
647.675	-12.2	0.000
647.68	-12.2	0.000
647.685	-12.2	0.000
647.69	-12.3	0.000
647.695	-12.3	-0.000
647.7	-12.3	-0.000
647.705	-12.3	-0.000
647.71	-12.3	-0.001
647.715	-12.3	0.000
647.72	-12.3	0.000
647.725	-12.3	-0.000
647.73	-12.3	-0.001
647.735	-12.2	-0.000
647.74	-12.2	-0.000
647.745	-12.2	-0.000
647.75	-12.2	-0.001
647.755	-12.2	-0.001
647.76	-12.2	-0.001
647.765	-12.2	-0.000
647.77	-12.2	-0.000
647.775	-12.2	-0.001
647.78	-12.2	-0.001
647.785	-12.2	0.000
647.79	-12.2	0.000
647.795	-12.2	-0.000
647.8	-12.1	0.000
647.805	-12.1	0.000
647.81	-12.1	-0.001
647.815	-12.1	-0.000
647.82	-12.1	-0.001
647.825	-12.1	-0.000
647.83	-12.1	-0.000
647.835	-12.1	0.000
647.84	-12.1	-0.001
647.845	-12.1	-0.001
647.85	-12.1	-0.000
647.855	-12.1	-0.000
647.86	-12.0	-0.001
647.865	-12.0	-0.001
647.87	-12.0	-0.001
647.875	-12.0	-0.000
647.88	-12.0	-0.000
647.885	-12.0	-0.001
647.89	-12.1	-0.000
647.895	-12.0	-0.000
647.9	-12.0	-0.000
647.905	-12.0	-0.000
647.91	-12.0	-0.001
647.915	-12.0	-0.001
647.92	-12.0	-0.001
647.925	-11.9	-0.001
647.93	-11.9	-0.000
647.935	-11.9	-0.000
647.94	-11.9	-0.001
647.945	-11.9	-0.000
647.95	-11.9	0.000
647.955	-11.9	0.000
647.96	-11.9	-0.001
647.965	-11.9	-0.000
647.97	-11.9	-0.001
647.975	-11.9	-0.000
647.98	-11.9	0.000
647.985	-11.9	-0.001
647.99	-11.9	-0.001
647.995	-11.9	-0.000
648	-11.9	-0.000
648.005	-11.9	-0.000
648.01	-12.0	0.000
648.015	-12.0	-0.001
648.02	-12.0	0.000
648.025	-12.0	-0.000
648.03	-12.0	-0.000
648.035	-12.0	-0.000
648.04	-12.0	0.000
648.045	-12.0	0.000
648.05	-12.0	-0.000
648.055	-12.0	0.000
648.06	-12.0	-0.000
648.065	-12.0	0.000
648.07	-12.0	-0.000
648.075	-12.1	0.000
648.08	-12.1	-0.001
648.085	-12.1	-0.000
648.09	-12.1	-0.000
648.095	-12.1	-0.000
648.1	-12.1	-0.000
648.105	-12.1	0.000
648.11	-12.1	0.001
648.115	-12.1	-0.000
648.12	-12.1	0.000
648.125	-12.1	0.000
648.13	-12.2	0.000
648.135	-12.2	-0.000
648.14	-12.2	-0.001
648.145	-12.2	-0.001
648.15	-12.2	0.000
648.155	-12.2	-0.000
648.16	-12.1	-0.001
648.165	-12.1	0.000
648.17	-12.2	-0.000
648.175	-12.2	-0.000
648.18	-12.3	-0.000
648.185	-12.3	-0.001
648.19	-12.2	-0.000
648.195	-12.2	0.000
648.2	-12.2	0.000
648.205	-12.2	-0.000
648.21	-12.2	0.000
648.215	-12.3	0.000
648.22	-12.2	-0.001
648.225	-12.2	0.000
648.23	-12.2	-0.000
648.235	-12.2	0.000
648.24	-12.2	0.000
648.245	-12.2	-0.001
648.25	-12.2	0.000
648.255	-12.2	-0.000
648.26	-12.2	0.000
648.265	-12.2	-0.001
648.27	-12.2	0.000
648.275	-12.3	0.000
648.28	-12.3	-0.000
648.285	-12.3	-0.000
648.29	-12.3	0.000
648.295	-12.3	-0.000
648.3	-12.4	0.000
648.305	-12.3	-0.001
648.31	-12.3	-0.000
648.315	-12.3	-0.001
648.32	-12.3	-0.001
648.325	-12.3	-0.001
648.33	-12.3	0.000
648.335	-12.3	-0.001
648.34	-12.3	-0.000
648.345	-12.3	-0.001
648.35	-12.3	0.000
648.355	-12.3	-0.001
648.36	-12.2	-0.001
648.365	-12.2	0.000
648.37	-12.2	0.000
648.375	-12.2	-0.001
648.38	-12.2	0.000
648.385	-12.2	-0.000
648.39	-12.2	-0.000
648.395	-12.2	0.000
648.4	-12.1	-0.001
648.405	-12.1	-0.001
648.41	-12.1	-0.000
648.415	-12.0	-0.001
648.42	-12.0	-0.001
648.425	-12.0	0.000
648.43	-11.9	-0.000
648.435	-12.0	-0.000
648.44	-12.0	0.000
648.445	-12.0	-0.001
648.45	-12.0	0.000
648.455	-12.0	-0.001
648.46	-11.9	-0.001
648.465	-11.9	-0.000
648.47	-11.9	0.000
648.475	-11.9	-0.000
648.48	-11.9	0.000
648.485	-11.9	-0.001
648.49	-11.9	-0.001
648.495	-11.9	-0.000
648.5	-11.9	-0.000
648.505	-11.9	-0.001
648.51	-11.9	-0.001
648.515	-11.8	-0.000
648.52	-11.7	-0.000
648.525	-11.7	0.000
648.53	-11.8	0.000
648.535	-11.8	-0.000
648.54	-11.8	0.000
648.545	-11.8	-0.001
648.55	-11.8	-0.000
648.555	-11.8	-0.000
648.56	-11.8	0.000
648.565	-11.8	0.000
648.57	-11.7	-0.001
648.575	-11.7	-0.001
648.58	-11.7	0.000
648.585	-11.7	-0.000
648.59	-11.7	-0.000
648.595	-11.7	0.000
648.6	-11.8	-0.000
648.605	-11.8	0.000
648.61	-11.9	-0.000
648.615	-11.9	-0.000
648.62	-11.9	0.000
648.625	-11.8	-0.000
648.63	-11.8	-0.001
648.635	-11.8	-0.000
648.64	-11.9	-0.001
648.645	-12.0	0.000
648.65	-12.0	0.000
648.655	-11.9	-0.001
648.66	-11.9	-0.000
648.665	-12.0	-0.000
648.67	-12.0	-0.001
648.675	-12.0	-0.001
648.68	-12.0	-0.000
648.685	-12.0	-0.001
648.69	-12.0	0.000
648.695	-12.0	0.000
648.7	-12.0	-0.001
648.705	-12.0	-0.000
648.71	-12.1	-0.000
648.715	-12.2	-0.000
648.72	-14.8	-0.000
648.725	-16.2	0.000
648.73	-11.9	-0.000
648.735	-10.7	-0.000
648.74	-11.1	-0.001
648.745	-11.3	0.000
648.75	-11.3	0.000
648.755	-11.3	-0.001
648.76	-11.4	-0.000
648.765	-11.5	-0.000
648.77	-11.6	0.000
648.775	-11.7	-0.000
648.78	-11.7	-0.001
648.785	-11.7	0.000
648.79	-11.8	-0.001
648.795	-11.9	-0.000
648.8	-11.9	-0.001
648.805	-11.9	-0.000
648.81	-12.0	-0.000
648.815	-12.0	-0.000
648.82	-12.0	-0.001
648.825	-12.0	0.000
648.83	-12.0	-0.001
648.835	-12.0	0.000
648.84	-12.1	0.000
648.845	-12.1	0.000
648.85	-12.1	0.000
648.855	-12.1	0.000
648.86	-12.1	-0.000
648.865	-12.1	-0.001
648.87	-12.2	0.000
648.875	-12.2	-0.001
648.88	-12.1	-0.001
648.885	-12.1	0.000
648.89	-12.1	-0.001
648.895	-12.1	0.000
648.9	-12.1	0.000
648.905	-12.1	0.000
648.91	-12.1	-0.001
648.915	-12.1	-0.001
648.92	-12.1	-0.001
648.925	-12.1	-0.000
648.93	-12.1	-0.000
648.935	-12.0	-0.000
648.94	-12.0	-0.000
648.945	-12.0	-0.000
648.95	-12.0	-0.001
648.955	-12.0	-0.001
648.96	-11.9	-0.000
648.965	-11.9	-0.001
648.97	-11.9	-0.000
648.975	-11.9	0.000
648.98	-11.9	-0.001
648.985	-11.9	-0.000
648.99	-12.0	-0.000
648.995	-12.0	-0.000
649	-12.0	0.000
649.005	-12.0	-0.000
649.01	-12.0	0.000
649.015	-12.0	-0.001
649.02	-12.0	-0.000
649.025	-12.1	0.000
649.03	-12.1	-0.000
649.035	-12.2	0.000
649.04	-12.2	0.000
649.045	-12.2	-0.000
649.05	-12.2	-0.001
649.055	-12.3	-0.000
649.06	-12.3	0.000
649.065	-12.4	-0.000
649.07	-12.4	-0.000
649.075	-12.4	0.000
649.08	-12.5	-0.000
649.085	-12.5	-0.000
649.09	-12.6	0.000
649.095	-12.6	-0.000
649.1	-12.6	-0.001
649.105	-12.7	-0.001
649.11	-12.7	-0.001
649.115	-12.8	-0.000
649.12	-12.8	-0.000
649.125	-12.9	-0.001
649.13	-12.9	0.000
649.135	-13.0	-0.001
649.14	-13.0	0.000
649.145	-13.0	-0.000
649.15	-13.0	-0.000
649.155	-13.0	-0.000
649.16	-13.1	0.000
649.165	-13.1	0.000
649.17	-13.1	-0.000
649.175	-13.1	-0.000
649.18	-13.1	0.000
649.185	-13.1	-0.000
649.19	-13.2	-0.000
649.195	-13.2	-0.000
649.2	-13.2	0.000
649.205	-13.2	-0.000
649.21	-13.1	-0.000
649.215	-13.1	-0.001
649.22	-13.1	-0.001
649.225	-13.2	0.000
649.23	-13.2	0.000
649.235	-13.2	-0.001
649.24	-13.1	-0.000
649.245	-13.1	-0.001
649.25	-13.1	0.000
649.255	-13.1	-0.000
649.26	-13.1	-0.001
649.265	-13.2	-0.000
649.27	-13.2	-0.001
649.275	-13.1	0.000
649.28	-13.1	-0.000
649.285	-13.1	-0.000
649.29	-13.1	-0.000
649.295	-13.0	-0.000
649.3	-13.0	-0.001
649.305	-12.9	-0.001
649.31	-12.9	0.000
649.315	-12.9	-0.000
649.32	-12.8	0.000
649.325	-12.8	-0.000
649.33	-12.8	0.000
649.335	-12.8	-0.000
649.34	-12.8	-0.001
649.345	-12.8	-0.000
649.35	-12.8	-0.000
649.355	-12.8	0.000
649.36	-12.7	-0.000
649.365	-12.7	-0.001
649.37	-12.7	-0.000
649.375	-12.7	0.000
649.38	-12.6	-0.000
649.385	-12.6	0.000
649.39	-12.6	-0.000
649.395	-12.5	-0.000
649.4	-12.5	-0.000
649.405	-12.5	-0.000
649.41	-12.5	-0.001
649.415	-12.5	-0.000
649.42	-12.4	-0.001
649.425	-12.4	-0.000
649.43	-12.4	-0.000
649.435	-12.3	-0.001
649.44	-12.3	-0.001
649.445	-12.3	0.000
649.45	-12.3	-0.000
649.455	-12.2	-0.000
649.46	-12.2	-0.001
649.465	-12.2	0.000
649.47	-12.2	0.000
649.475	-12.1	0.000
649.48	-12.1	-0.000
649.485	-12.1	-0.000
649.49	-12.0	-0.001
649.495	-11.9	-0.000
649.5	-11.9	-0.000
649.505	-11.9	-0.001
649.51	-12.0	-0.000
649.515	-12.0	-0.001
649.52	-11.9	-0.000
649.525	-11.9	-0.000
649.53	-11.9	-0.000
649.535	-11.8	-0.001
649.54	-11.8	-0.001
649.545	-11.7	-0.001
649.55	-11.7	-0.001
649.555	-11.7	-0.000
649.56	-11.7	0.000
649.565	-11.7	0.000
649.57	-11.7	-0.000
649.575	-11.7	-0.000
649.58	-11.7	-0.000
649.585	-11.7	-0.001
649.59	-11.6	-0.000
649.595	-11.6	-0.000
649.6	-11.6	-0.000
649.605	-11.6	-0.001
649.61	-11.6	0.000
649.615	-11.6	0.000
649.62	-11.6	0.000
649.625	-11.6	-0.000
649.63	-11.6	0.000
649.635	-11.6	-0.000
649.64	-11.5	-0.000
649.645	-11.5	-0.001
649.65	-11.5	0.000
649.655	-11.5	0.000
649.66	-11.5	-0.001
649.665	-11.5	-0.001
649.67	-11.5	-0.001
649.675	-11.6	-0.001
649.68	-11.6	-0.000
649.685	-11.6	-0.001
649.69	-11.6	-0.001
649.695	-11.6	-0.000
649.7	-11.6	0.000
649.705	-11.7	-0.000
649.71	-11.7	-0.000
649.715	-11.7	-0.001
649.72	-11.7	-0.000
649.725	-11.7	-0.001
649.73	-11.7	-0.001
649.735	-11.7	-0.001
649.74	-11.8	-0.001
649.745	-11.8	-0.001
649.75	-11.8	-0.000
649.755	-11.8	-0.000
649.76	-11.8	-0.000
649.765	-11.8	-0.000
649.77	-11.9	-0.001
649.775	-11.9	-0.000
649.78	-11.9	-0.000
649.785	-11.9	-0.000
649.79	-11.9	-0.001
649.795	-11.9	0.000
649.8	-11.9	-0.001
649.805	-11.9	-0.000
649.81	-12.0	0.000
649.815	-12.0	-0.001
649.82	-12.0	-0.000
649.825	-12.0	-0.000
649.83	-12.0	0.000
649.835	-12.0	-0.000
649.84	-12.0	-0.001
649.845	-12.0	-0.000
649.85	-12.0	-0.001
649.855	-12.1	0.000
649.86	-12.0	-0.001
649.865	-12.0	-0.001
649.87	-12.0	-0.001
649.875	-12.1	-0.000
649.88	-12.1	-0.000
649.885	-12.1	-0.000
649.89	-12.1	0.000
649.895	-12.1	-0.000
649.9	-12.1	0.000
649.905	-12.1	-0.001
649.91	-12.1	-0.001
649.915	-12.2	0.000
649.92	-12.2	-0.000
649.925	-12.2	-0.000
649.93	-12.2	-0.001
649.935	-12.1	0.000
649.94	-12.1	0.000
649.945	-12.1	-0.001
649.95	-12.2	-0.001
649.955	-12.1	0.000
649.96	-12.1	0.000
649.965	-12.1	-0.001
649.97	-12.2	-0.001
649.975	-12.2	-0.000
649.98	-12.1	-0.001
649.985	-12.1	-0.001
649.99	-12.2	-0.001
649.995	-12.2	0.000
650	-12.1	0.000
650.005	-12.1	-0.001
650.01	-12.1	0.000
650.015	-12.1	-0.000
650.02	-12.1	-0.001
650.025	-12.1	-0.000
650.03	-12.1	0.000
650.035	-12.0	-0.001
650.04	-12.0	-0.000
650.045	-12.1	-0.001
650.05	-12.1	0.000
650.055	-12.1	-0.001
650.06	-12.0	-0.001
650.065	-12.0	-0.000
650.07	-12.0	-0.001
650.075	-12.0	-0.000
650.08	-12.0	0.000
650.085	-12.0	-0.000
650.09	-11.9	0.000
650.095	-11.9	-0.000
650.1	-11.9	-0.000
650.105	-11.9	-0.000
650.11	-11.9	-0.000
650.115	-11.8	-0.000
650.12	-11.8	0.000
650.125	-11.8	-0.001
650.13	-11.8	-0.000
650.135	-11.8	-0.000
650.14	-11.8	-0.000
650.145	-11.8	-0.001
650.15	-11.8	0.000
650.155	-11.8	-0.000
650.16	-11.8	-0.000
650.165	-11.8	0.000
650.17	-11.8	-0.000
650.175	-11.7	0.000
650.18	-11.7	-0.000
650.185	-11.7	-0.000
650.19	-11.7	-0.001
650.195	-11.6	0.000
650.2	-11.6	-0.000
650.205	-11.6	0.000
650.21	-11.6	-0.001
650.215	-11.6	0.000
650.22	-11.5	-0.000
650.225	-11.5	0.000
650.23	-11.5	0.000
650.235	-11.6	-0.000
650.24	-11.6	-0.001
650.245	-11.6	0.000
650.25	-11.5	-0.001
650.255	-11.5	-0.001
650.26	-11.6	0.000
650.265	-11.6	-0.000
650.27	-11.5	0.000
650.275	-11.5	-0.001
650.28	-11.5	-0.001
650.285	-11.5	-0.000
650.29	-11.5	-0.000
650.295	-11.5	-0.001
650.3	-11.5	0.000
650.305	-11.5	-0.000
650.31	-11.5	-0.000
650.315	-11.5	-0.000
650.32	-11.5	-0.000
650.325	-11.5	-0.000
650.33	-11.5	-0.001
650.335	-11.5	-0.000
650.34	-11.5	-0.000
650.345	-11.6	-0.001
650.35	-11.6	-0.001
650.355	-11.6	-0.001
650.36	-11.6	0.000
650.365	-11.6	0.000
650.37	-11.6	-0.000
650.375	-11.6	-0.000
650.38	-11.5	-0.001
650.385	-11.5	-0.001
650.39	-11.6	-0.001
650.395	-11.7	-0.001
650.4	-11.7	0.000
650.405	-11.7	-0.001
650.41	-11.7	-0.000
650.415	-11.7	-0.000
650.42	-11.7	-0.001
650.425	-11.7	0.000
650.43	-11.7	0.000
650.435	-11.7	0.000
650.44	-11.6	-0.001
650.445	-11.6	-0.000
650.45	-11.7	-0.001
650.455	-11.7	-0.000
650.46	-11.7	-0.001
650.465	-11.7	-0.000
650.47	-11.8	-0.000
650.475	-11.7	-0.000
650.48	-11.7	-0.000
650.485	-11.7	0.000
650.49	-11.7	-0.000
650.495	-11.7	-0.000
650.5	-11.7	0.000
650.505	-11.7	-0.001
650.51	-11.7	-0.000
650.515	-11.7	0.000
650.52	-11.7	-0.000
650.525	-11.7	0.000
650.53	-11.7	0.000
650.535	-11.7	-0.000
650.54	-11.7	0.000
650.545	-11.7	-0.000
650.55	-11.7	-0.000
650.555	-11.7	-0.000
650.56	-11.7	-0.001
650.565	-11.7	-0.000
650.57	-11.7	0.000
650.575	-11.7	0.000
650.58	-11.7	0.000
650.585	-11.7	0.000
650.59	-11.7	-0.000
650.595	-11.7	-0.000
650.6	-11.7	0.000
650.605	-11.7	-0.000
650.61	-11.7	-0.000
650.615	-11.7	-0.001
650.62	-11.7	-0.001
650.625	-11.7	-0.001
650.63	-11.7	-0.000
650.635	-11.7	-0.001
650.64	-11.7	0.000
650.645	-11.7	-0.000
650.65	-11.7	0.000
650.655	-11.7	-0.000
650.66	-11.7	-0.000
650.665	-11.7	-0.000
650.67	-11.6	-0.000
650.675	-11.6	0.000
650.68	-11.6	-0.000
650.685	-11.7	-0.000
650.69	-11.7	-0.001
650.695	-11.7	-0.000
650.7	-11.7	-0.000
650.705	-11.7	-0.000
650.71	-11.7	0.000
650.715	-11.7	-0.001
650.72	-11.7	0.000
650.725	-11.7	0.000
650.73	-11.8	0.000
650.735	-11.8	0.000
650.74	-11.8	-0.001
650.745	-11.8	-0.001
650.75	-11.8	-0.000
650.755	-11.8	-0.000
650.76	-11.8	0.000
650.765	-11.8	-0.001
650.77	-11.8	-0.001
650.775	-11.8	-0.000
650.78	-11.8	-0.001
650.785	-11.8	-0.000
650.79	-11.9	-0.001
650.795	-11.9	-0.001
650.8	-11.9	-0.000
650.805	-11.8	-0.001
650.81	-11.8	-0.001
650.815	-11.8	-0.000
650.82	-11.9	-0.001
650.825	-11.9	0.000
650.83	-11.9	-0.000
650.835	-11.9	-0.001
650.84	-11.9	-0.000
650.845	-11.9	0.000
650.85	-11.9	-0.001
650.855	-11.8	-0.001
650.86	-11.8	-0.000
650.865	-11.9	-0.000
650.87	-11.9	-0.000
650.875	-11.9	-0.000
650.88	-11.9	0.000
650.885	-11.9	-0.000
650.89	-11.9	-0.000
650.895	-11.9	-0.000
650.9	-11.9	0.000
650.905	-11.9	-0.000
650.91	-11.9	-0.000
